#
# ABINIT package : phonon DOS file
#
# Phonon DOS integrated over the FS. omega in a.u. EXPERIMENTAL!!!
# number of kpoints integrated over :      32768
# number of energy points :        400
# between omega_min =     0.000000E+00 Ha and omega_max =     0.136785E-02 Ha
# The DOS at Fermi level for spin    1 is     0.836092E+01
# The DOS at Fermi level for spin    2 is     0.419093E+02
# and the smearing width for gaussians is     0.200000E-04
#
   0.0000000000000000        2.6956091940927562     
   3.4281977271067160E-006   2.7168284180237809     
   6.8563954542134319E-006   2.6617269448117504     
   1.0284593181320147E-005   2.5874000790319167     
   1.3712790908426864E-005   2.5626887687013378     
   1.7140988635533578E-005   2.6518483417333965     
   2.0569186362640295E-005   2.9003189813435739     
   2.3997384089747011E-005   3.3277712440296274     
   2.7425581816853728E-005   3.9312960330340716     
   3.0853779543960441E-005   4.6980593559564827     
   3.4281977271067157E-005   5.6230045266913855     
   3.7710174998173873E-005   6.7245454686763884     
   4.1138372725280590E-005   8.0508522870656716     
   4.4566570452387306E-005   9.6718875420328096     
   4.7994768179494022E-005   11.657334413369274     
   5.1422965906600739E-005   14.046319764394232     
   5.4851163633707455E-005   16.819073207817464     
   5.8279361360814172E-005   19.881400183147417     
   6.1707559087920881E-005   23.069415903820207     
   6.5135756815027591E-005   26.175499260203207     
   6.8563954542134300E-005   28.989414207670052     
   7.1992152269241010E-005   31.343854586221372     
   7.5420349996347720E-005   33.153064605466263     
   7.8848547723454429E-005   34.436436118517712     
   8.2276745450561139E-005   35.324003245250708     
   8.5704943177667848E-005   36.044899198610523     
   8.9133140904774558E-005   36.901568116667420     
   9.2561338631881268E-005   38.232312913212695     
   9.5989536358987977E-005   40.364557207171451     
   9.9417734086094687E-005   43.562775644525658     
   1.0284593181320140E-004   47.978456825013374     
   1.0627412954030811E-004   53.612767510785766     
   1.0970232726741482E-004   60.303035768912316     
   1.1313052499452153E-004   67.740016181972663     
   1.1655872272162823E-004   75.514679334984010     
   1.1998692044873494E-004   83.183853696861533     
   1.2341511817584165E-004   90.337497113872132     
   1.2684331590294838E-004   96.650099478376745     
   1.3027151363005510E-004   101.90571082738261     
   1.3369971135716182E-004   105.99796890160449     
   1.3712790908426855E-004   108.91800404607929     
   1.4055610681137527E-004   110.74815913759622     
   1.4398430453848199E-004   111.67419578945631     
   1.4741250226558872E-004   112.01392173409560     
   1.5084069999269544E-004   112.24225293335917     
   1.5426889771980216E-004   112.98137590670883     
   1.5769709544690889E-004   114.92882234701973     
   1.6112529317401561E-004   118.71880544453735     
   1.6455349090112233E-004   124.74638520600521     
   1.6798168862822906E-004   133.01435119913060     
   1.7140988635533578E-004   143.07104771080353     
   1.7483808408244250E-004   154.08316671344508     
   1.7826628180954922E-004   165.03616790843787     
   1.8169447953665595E-004   174.99835216971007     
   1.8512267726376267E-004   183.35153519841427     
   1.8855087499086939E-004   189.90175749645707     
   1.9197907271797612E-004   194.83597216476875     
   1.9540727044508284E-004   198.56070129096778     
   1.9883546817218956E-004   201.51089530855066     
   2.0226366589929629E-004   204.02456789503123     
   2.0569186362640301E-004   206.33756708494300     
   2.0912006135350973E-004   208.68515831731742     
   2.1254825908061646E-004   211.43858439201281     
   2.1597645680772318E-004   215.18513829554072     
   2.1940465453482990E-004   220.68779565261062     
   2.2283285226193663E-004   228.71906922807898     
   2.2626104998904335E-004   239.82362392664899     
   2.2968924771615007E-004   254.09814753159375     
   2.3311744544325679E-004   271.07297518558994     
   2.3654564317036352E-004   289.74366173739861     
   2.3997384089747024E-004   308.74915927329914     
   2.4340203862457696E-004   326.64579499075904     
   2.4683023635168369E-004   342.19767483140890     
   2.5025843407879038E-004   354.60205713551545     
   2.5368663180589708E-004   363.59254068137943     
   2.5711482953300378E-004   369.40574371951902     
   2.6054302726011047E-004   372.64379346154692     
   2.6397122498721717E-004   374.09755805465869     
   2.6739942271432386E-004   374.60031534031839     
   2.7082762044143056E-004   374.95616217962862     
   2.7425581816853726E-004   375.94384799165891     
   2.7768401589564395E-004   378.35588551339845     
   2.8111221362275065E-004   383.01418111713156     
   2.8454041134985734E-004   390.71511802001083     
   2.8796860907696404E-004   402.09269192499835     
   2.9139680680407074E-004   417.43165679187297     
   2.9482500453117743E-004   436.49546463297219     
   2.9825320225828413E-004   458.44278263724942     
   3.0168139998539082E-004   481.88689880485560     
   3.0510959771249752E-004   505.10950822334036     
   3.0853779543960422E-004   526.38816074868635     
   3.1196599316671091E-004   544.35409601417393     
   3.1539419089381761E-004   558.28150464284283     
   3.1882238862092430E-004   568.22791610008824     
   3.2225058634803100E-004   574.99184624846851     
   3.2567878407513770E-004   579.91003147327706     
   3.2910698180224439E-004   584.56160153753774     
   3.3253517952935109E-004   590.46577668079738     
   3.3596337725645778E-004   598.84952992927572     
   3.3939157498356448E-004   610.52856818678401     
   3.4281977271067118E-004   625.90143142652255     
   3.4624797043777787E-004   645.01727371480160     
   3.4967616816488457E-004   667.65702473126692     
   3.5310436589199127E-004   693.37444535819179     
   3.5653256361909796E-004   721.47745516114219     
   3.5996076134620466E-004   750.97728847264875     
   3.6338895907331135E-004   780.56998060831131     
   3.6681715680041805E-004   808.71878725157626     
   3.7024535452752475E-004   833.86910852115329     
   3.7367355225463144E-004   854.76303320192358     
   3.7710174998173814E-004   870.76018357420480     
   3.8052994770884483E-004   882.04867918447712     
   3.8395814543595153E-004   889.66132735051519     
   3.8738634316305823E-004   895.28579161492405     
   3.9081454089016492E-004   900.93740032141613     
   3.9424273861727162E-004   908.60796338272712     
   3.9767093634437831E-004   919.99053331534412     
   4.0109913407148501E-004   936.31894394540598     
   4.0452733179859171E-004   958.29158798643914     
   4.0795552952569840E-004   986.01638428013700     
   4.1138372725280510E-004   1018.9399534063973     
   4.1481192497991179E-004   1055.7905058018750     
   4.1824012270701849E-004   1094.6218106812078     
   4.2166832043412519E-004   1133.0462922891743     
   4.2509651816123188E-004   1168.6749012681075     
   4.2852471588833858E-004   1199.6737015298254     
   4.3195291361544527E-004   1225.2642372903865     
   4.3538111134255197E-004   1245.9875666531198     
   4.3880930906965867E-004   1263.6275547145835     
   4.4223750679676536E-004   1280.8085802608939     
   4.4566570452387206E-004   1300.3883240695404     
   4.4909390225097875E-004   1324.8163814109514     
   4.5252209997808545E-004   1355.6175218760904     
   4.5595029770519215E-004   1393.1056174351470     
   4.5937849543229884E-004   1436.3686320275401     
   4.6280669315940554E-004   1483.5058363917867     
   4.6623489088651223E-004   1532.0535711184343     
   4.6966308861361893E-004   1579.5077576392011     
   4.7309128634072563E-004   1623.8406891189959     
   4.7651948406783232E-004   1663.9153031254957     
   4.7994768179493902E-004   1699.7187274229555     
   4.8337587952204571E-004   1732.3652894701027     
   4.8680407724915241E-004   1763.8573994646804     
   4.9023227497625916E-004   1796.6417979859093     
   4.9366047270336586E-004   1833.0537311280216     
   4.9708867043047255E-004   1874.7867946569231     
   5.0051686815757925E-004   1922.5383444138420     
   5.0394506588468595E-004   1975.9419248825327     
   5.0737326361179264E-004   2033.8113152416252     
   5.1080146133889934E-004   2094.6131011357879     
   5.1422965906600603E-004   2157.0002784859166     
   5.1765785679311273E-004   2220.2181805323494     
   5.2108605452021943E-004   2284.2494321801523     
   5.2451425224732612E-004   2349.6735720126512     
   5.2794244997443282E-004   2417.3297340034178     
   5.3137064770153951E-004   2487.9364879148447     
   5.3479884542864621E-004   2561.8156364482616     
   5.3822704315575291E-004   2638.7972497609367     
   5.4165524088285960E-004   2718.2917749176831     
   5.4508343860996630E-004   2799.4506067977400     
   5.4851163633707299E-004   2881.3317244752184     
   5.5193983406417969E-004   2963.0391627135077     
   5.5536803179128639E-004   3043.8729364739502     
   5.5879622951839308E-004   3123.5507227614603     
   5.6222442724549978E-004   3202.5082539738764     
   5.6565262497260647E-004   3282.1748291718386     
   5.6908082269971317E-004   3365.0338583732209     
   5.7250902042681987E-004   3454.3039577237219     
   5.7593721815392656E-004   3553.2403877416077     
   5.7936541588103326E-004   3664.2889175547043     
   5.8279361360813995E-004   3788.4887484823698     
   5.8622181133524665E-004   3925.5005009935221     
   5.8965000906235335E-004   4074.4074772601339     
   5.9307820678946004E-004   4235.0945702662657     
   5.9650640451656674E-004   4409.7032697798277     
   5.9993460224367343E-004   4603.5302105002720     
   6.0336279997078013E-004   4824.8417988537503     
   6.0679099769788683E-004   5083.3912032601402     
   6.1021919542499352E-004   5387.8526602933889     
   6.1364739315210022E-004   5742.8027578680485     
   6.1707559087920691E-004   6146.1417856198859     
   6.2050378860631361E-004   6587.8450447870155     
   6.2393198633342031E-004   7050.6156906111391     
   6.2736018406052700E-004   7512.4422083348582     
   6.3078838178763370E-004   7950.4331078103969     
   6.3421657951474040E-004   8344.8597862535044     
   6.3764477724184709E-004   8682.2816769176679     
   6.4107297496895379E-004   8956.9863632018405     
   6.4450117269606048E-004   9170.5891764360622     
   6.4792937042316718E-004   9330.2289799604223     
   6.5135756815027388E-004   9446.1290781342395     
   6.5478576587738057E-004   9529.2736824963322     
   6.5821396360448727E-004   9589.6648926962971     
   6.6164216133159396E-004   9635.2625793360749     
   6.6507035905870066E-004   9671.4556635192803     
   6.6849855678580736E-004   9700.8607017788418     
   6.7192675451291405E-004   9723.3614775583792     
   6.7535495224002075E-004   9736.4683611935252     
   6.7878314996712744E-004   9736.1457763959042     
   6.8221134769423414E-004   9718.1489512064127     
   6.8563954542134084E-004   9679.6599874540607     
   6.8906774314844753E-004   9620.7576573651804     
   6.9249594087555423E-004   9545.1682264053616     
   6.9592413860266092E-004   9459.9263488509932     
   6.9935233632976762E-004   9373.9773483520166     
   7.0278053405687432E-004   9296.1874215516382     
   7.0620873178398101E-004   9233.4698482883414     
   7.0963692951108771E-004   9189.6512071156722     
   7.1306512723819440E-004   9165.3368577695946     
   7.1649332496530110E-004   9158.5873210279278     
   7.1992152269240780E-004   9165.9209927066931     
   7.2334972041951449E-004   9183.1498908700451     
   7.2677791814662119E-004   9205.8003883690471     
   7.3020611587372788E-004   9229.1986913215114     
   7.3363431360083458E-004   9248.5110918700284     
   7.3706251132794128E-004   9259.0111946707093     
   7.4049070905504797E-004   9256.6368207881296     
   7.4391890678215467E-004   9238.6481694782233     
   7.4734710450926136E-004   9204.0708333984439     
   7.5077530223636806E-004   9153.6810665504818     
   7.5420349996347476E-004   9089.5173258690484     
   7.5763169769058145E-004   9014.1433364727582     
   7.6105989541768815E-004   8930.0041094658864     
   7.6448809314479485E-004   8839.1464912279898     
   7.6791629087190154E-004   8743.3655275488709     
   7.7134448859900824E-004   8644.6069916130891     
   7.7477268632611493E-004   8545.3308395241220     
   7.7820088405322163E-004   8448.5850529087584     
   7.8162908178032833E-004   8357.7230813970382     
   7.8505727950743502E-004   8275.9087400359149     
   7.8848547723454172E-004   8205.6605134918027     
   7.9191367496164841E-004   8148.6284244612571     
   7.9534187268875511E-004   8105.6203858333620     
   7.9877007041586181E-004   8076.7362451835324     
   8.0219826814296850E-004   8061.4491111055922     
   8.0562646587007520E-004   8058.6058948426316     
   8.0905466359718189E-004   8066.4842271109364     
   8.1248286132428859E-004   8083.0842342492024     
   8.1591105905139529E-004   8106.6876245537023     
   8.1933925677850198E-004   8136.4769747015835     
   8.2276745450560868E-004   8172.8618713540109     
   8.2619565223271537E-004   8217.2396222057159     
   8.2962384995982207E-004   8271.1980065476273     
   8.3305204768692877E-004   8335.4711705154659     
   8.3648024541403546E-004   8409.0947444944522     
   8.3990844314114216E-004   8489.0994126228143     
   8.4333664086824885E-004   8570.8205034785788     
   8.4676483859535555E-004   8648.6538963489438     
   8.5019303632246225E-004   8716.9811159757282     
   8.5362123404956894E-004   8771.0262714603614     
   8.5704943177667564E-004   8807.5086191151022     
   8.6047762950378233E-004   8825.0269331549625     
   8.6390582723088903E-004   8824.1336374093862     
   8.6733402495799573E-004   8807.0729274664573     
   8.7076222268510242E-004   8777.2169411921004     
   8.7419042041220912E-004   8738.3296020220259     
   8.7761861813931581E-004   8693.8544365418838     
   8.8104681586642251E-004   8646.3999643098468     
   8.8447501359352921E-004   8597.4913876191113     
   8.8790321132063590E-004   8547.5481162858214     
   8.9133140904774260E-004   8496.0156730200488     
   8.9475960677484929E-004   8441.6379269994250     
   8.9818780450195599E-004   8382.9239261125440     
   9.0161600222906269E-004   8318.8438150209731     
   9.0504419995616938E-004   8249.6528246796333     
   9.0847239768327608E-004   8177.5728476406230     
   9.1190059541038278E-004   8106.9949983320193     
   9.1532879313748947E-004   8043.9916368007271     
   9.1875699086459617E-004   7995.2068602043200     
   9.2218518859170286E-004   7966.4843247254485     
   9.2561338631880956E-004   7961.7240335649094     
   9.2904158404591626E-004   7982.3525471519515     
   9.3246978177302295E-004   8027.4956697802036     
   9.3589797950012965E-004   8094.6158132227647     
   9.3932617722723634E-004   8180.1911174211937     
   9.4275437495434304E-004   8280.0641324892167     
   9.4618257268144974E-004   8389.3393091137059     
   9.4961077040855643E-004   8502.0171553007131     
   9.5303896813566313E-004   8610.7458780705565     
   9.5646716586276982E-004   8707.0407835691276     
   9.5989536358987652E-004   8782.0834434527096     
   9.6332356131698322E-004   8827.8978316989815     
   9.6675175904408991E-004   8838.4845545927510     
   9.7017995677119661E-004   8810.4991658633553     
   9.7360815449830330E-004   8743.2854162166204     
   9.7703635222541000E-004   8638.3928758521051     
   9.8046454995251680E-004   8498.9398829385336     
   9.8389274767962361E-004   8329.1966957816840     
   9.8732094540673041E-004   8134.5565252592642     
   9.9074914313383722E-004   7921.7588143112453     
   9.9417734086094402E-004   7699.0093063661352     
   9.9760553858805083E-004   7475.6355622977680     
   1.0010337363151576E-003   7261.1336213174927     
   1.0044619340422644E-003   7063.7868260988689     
   1.0078901317693712E-003   6889.2985917567157     
   1.0113183294964780E-003   6739.9402722200475     
   1.0147465272235848E-003   6614.5434585861931     
   1.0181747249506917E-003   6509.3498313448308     
   1.0216029226777985E-003   6419.4203956350875     
   1.0250311204049053E-003   6340.1298221053421     
   1.0284593181320121E-003   6268.2839789047739     
   1.0318875158591189E-003   6202.5705995446087     
   1.0353157135862257E-003   6143.3079218531211     
   1.0387439113133325E-003   6091.7080063992662     
   1.0421721090404393E-003   6049.0424028900434     
   1.0456003067675461E-003   6016.1249326330644     
   1.0490285044946529E-003   5993.3797093057319     
   1.0524567022217597E-003   5981.4755613801535     
   1.0558848999488665E-003   5982.1906923513861     
   1.0593130976759733E-003   5998.9761905668711     
   1.0627412954030801E-003   6036.7328368179542     
   1.0661694931301869E-003   6100.6145558785338     
   1.0695976908572937E-003   6194.1087273950288     
   1.0730258885844005E-003   6317.0262441987661     
   1.0764540863115073E-003   6464.1850669055220     
   1.0798822840386141E-003   6625.4093747321658     
   1.0833104817657209E-003   6787.0425544750506     
   1.0867386794928277E-003   6934.6443975512711     
   1.0901668772199345E-003   7056.1129542952040     
   1.0935950749470414E-003   7144.3063244658051     
   1.0970232726741482E-003   7198.4040693229363     
   1.1004514704012550E-003   7223.6754394789032     
   1.1038796681283618E-003   7229.8402289014439     
   1.1073078658554686E-003   7228.6168229161385     
   1.1107360635825754E-003   7231.2131746987197     
   1.1141642613096822E-003   7246.4121258066780     
   1.1175924590367890E-003   7279.6233392085087     
   1.1210206567638958E-003   7332.9533639079427     
   1.1244488544910026E-003   7406.0872296399621     
   1.1278770522181094E-003   7497.6227235547940     
   1.1313052499452162E-003   7606.4491432308723     
   1.1347334476723230E-003   7732.7992462130187     
   1.1381616453994298E-003   7878.7133343618489     
   1.1415898431265366E-003   8047.8214645106864     
   1.1450180408536434E-003   8244.5389884661654     
   1.1484462385807502E-003   8472.9282386212490     
   1.1518744363078570E-003   8735.5521346307505     
   1.1553026340349638E-003   9032.6099576570959     
   1.1587308317620706E-003   9361.5236531266619     
   1.1621590294891774E-003   9716.9930858856624     
   1.1655872272162842E-003   10091.421271895828     
   1.1690154249433911E-003   10475.552640348742     
   1.1724436226704979E-003   10859.152846318941     
   1.1758718203976047E-003   11231.557414630342     
   1.1793000181247115E-003   11581.927441312568     
   1.1827282158518183E-003   11899.114692234667     
   1.1861564135789251E-003   12171.197299029445     
   1.1895846113060319E-003   12384.975280415647     
   1.1930128090331387E-003   12525.891979983944     
   1.1964410067602455E-003   12578.816820467391     
   1.1998692044873523E-003   12529.813456450771     
   1.2032974022144591E-003   12368.526433468447     
   1.2067255999415659E-003   12090.401444950012     
   1.2101537976686727E-003   11697.871797324544     
   1.2135819953957795E-003   11199.995599696269     
   1.2170101931228863E-003   10610.665372425005     
   1.2204383908499931E-003   9946.1089414047437     
   1.2238665885770999E-003   9222.6446803247982     
   1.2272947863042067E-003   8455.4296126185436     
   1.2307229840313135E-003   7658.3899039713906     
   1.2341511817584203E-003   6844.9585810737972     
   1.2375793794855271E-003   6028.9505991806773     
   1.2410075772126339E-003   5224.9853174005102     
   1.2444357749397407E-003   4448.2096260539311     
   1.2478639726668476E-003   3713.4501823501496     
   1.2512921703939544E-003   3034.1323556916473     
   1.2547203681210612E-003   2421.2894334932898     
   1.2581485658481680E-003   1882.8342667996292     
