#
# ABINIT package : a2f file
#
# a2f function integrated over the FS. omega in a.u.
#  number of kpoints integrated over :      32768
#  number of energy points :        400
#  between omega_min =    -0.535645E-05 Ha and omega_max =     0.150531E-02 Ha
#  and the smearing width for gaussians is     0.200000E-04
# The DOS at Fermi level for spin    2 is     0.110771E+02
#
  -5.3564535692119267E-006   3.2154903552950773E-003
  -1.5703201911023107E-006   2.2596913947283983E-003
   2.2158131870073053E-006   1.6059364297219480E-003
   6.0019465651169214E-006   1.3013456317388875E-003
   9.7880799432265365E-006   1.3658997209448640E-003
   1.3574213321336153E-005   1.8062662674055399E-003
   1.7360346699445770E-005   2.6145257430444948E-003
   2.1146480077555387E-005   3.7521187170983196E-003
   2.4932613455665004E-005   5.1291178365906976E-003
   2.8718746833774621E-005   6.5940712583460494E-003
   3.2504880211884234E-005   7.9472507481761195E-003
   3.6291013589993851E-005   8.9802565401327465E-003
   4.0077146968103468E-005   9.5316929672893957E-003
   4.3863280346213085E-005   9.5388617979067260E-003
   4.7649413724322702E-005   9.0648139909729891E-003
   5.1435547102432319E-005   8.2892758592344445E-003
   5.5221680480541936E-005   7.4658280521507706E-003
   5.9007813858651552E-005   6.8590299545697852E-003
   6.2793947236761163E-005   6.6795547692933607E-003
   6.6580080614870779E-005   7.0334968854812501E-003
   7.0366213992980396E-005   7.8973843932114672E-003
   7.4152347371090013E-005   9.1254340688507098E-003
   7.7938480749199630E-005   1.0489553791890614E-002
   8.1724614127309247E-005   1.1743981485480321E-002
   8.5510747505418864E-005   1.2696553468028261E-002
   8.9296880883528481E-005   1.3262628652669781E-002
   9.3083014261638098E-005   1.3481331118761208E-002
   9.6869147639747714E-005   1.3487870015088638E-002
   1.0065528101785733E-004   1.3454105552272968E-002
   1.0444141439596695E-004   1.3522532692242288E-002
   1.0822754777407657E-004   1.3759738105998618E-002
   1.1201368115218618E-004   1.4144787847256870E-002
   1.1579981453029580E-004   1.4592623245900787E-002
   1.1958594790840542E-004   1.4999872306468588E-002
   1.2337208128651502E-004   1.5294372321409368E-002
   1.2715821466462464E-004   1.5470013226000896E-002
   1.3094434804273425E-004   1.5593763438835092E-002
   1.3473048142084387E-004   1.5780998636198255E-002
   1.3851661479895349E-004   1.6147284131412833E-002
   1.4230274817706310E-004   1.6756010401354555E-002
   1.4608888155517272E-004   1.7585935670566259E-002
   1.4987501493328234E-004   1.8536041018604447E-002
   1.5366114831139195E-004   1.9467975790174289E-002
   1.5744728168950157E-004   2.0266681716512181E-002
   1.6123341506761119E-004   2.0888933321176729E-002
   1.6501954844572080E-004   2.1375154320145435E-002
   1.6880568182383042E-004   2.1819841616478368E-002
   1.7259181520194004E-004   2.2318594190220850E-002
   1.7637794858004966E-004   2.2921210716382836E-002
   1.8016408195815927E-004   2.3613989287338516E-002
   1.8395021533626889E-004   2.4335443986336164E-002
   1.8773634871437851E-004   2.5011024858470687E-002
   1.9152248209248812E-004   2.5585221499527463E-002
   1.9530861547059774E-004   2.6035837165194659E-002
   1.9909474884870736E-004   2.6368605092113293E-002
   2.0288088222681697E-004   2.6601333512153470E-002
   2.0666701560492659E-004   2.6749832500096639E-002
   2.1045314898303621E-004   2.6823484774081068E-002
   2.1423928236114582E-004   2.6830914152689695E-002
   2.1802541573925544E-004   2.6790500408217767E-002
   2.2181154911736506E-004   2.6738969194444722E-002
   2.2559768249547467E-004   2.6733605766512222E-002
   2.2938381587358429E-004   2.6847450075742230E-002
   2.3316994925169391E-004   2.7159346376739803E-002
   2.3695608262980353E-004   2.7740516999210357E-002
   2.4074221600791314E-004   2.8637497521561153E-002
   2.4452834938602276E-004   2.9850920704479301E-002
   2.4831448276413235E-004   3.1313456952209759E-002
   2.5210061614224194E-004   3.2877381568100376E-002
   2.5588674952035153E-004   3.4327267356860154E-002
   2.5967288289846112E-004   3.5428965452127065E-002
   2.6345901627657071E-004   3.6009442351476691E-002
   2.6724514965468030E-004   3.6039549720606155E-002
   2.7103128303278989E-004   3.5677679535394621E-002
   2.7481741641089948E-004   3.5239922818829268E-002
   2.7860354978900907E-004   3.5093580398259314E-002
   2.8238968316711866E-004   3.5511450806587991E-002
   2.8617581654522825E-004   3.6550910076617191E-002
   2.8996194992333784E-004   3.8016470695019532E-002
   2.9374808330144743E-004   3.9527135051363592E-002
   2.9753421667955702E-004   4.0659610210680465E-002
   3.0132035005766661E-004   4.1102863306599367E-002
   3.0510648343577620E-004   4.0757879305395560E-002
   3.0889261681388578E-004   3.9748208404749338E-002
   3.1267875019199537E-004   3.8352191442609859E-002
   3.1646488357010496E-004   3.6900585129002593E-002
   3.2025101694821455E-004   3.5687718397662799E-002
   3.2403715032632414E-004   3.4923248445336293E-002
   3.2782328370443373E-004   3.4722635151618587E-002
   3.3160941708254332E-004   3.5116480970295585E-002
   3.3539555046065291E-004   3.6059781840285812E-002
   3.3918168383876250E-004   3.7435893782733522E-002
   3.4296781721687209E-004   3.9063548742322138E-002
   3.4675395059498168E-004   4.0718495427962742E-002
   3.5054008397309127E-004   4.2173293117354613E-002
   3.5432621735120086E-004   4.3246405332720832E-002
   3.5811235072931045E-004   4.3844000628976712E-002
   3.6189848410742004E-004   4.3979661731982422E-002
   3.6568461748552963E-004   4.3766775658262327E-002
   3.6947075086363922E-004   4.3389249665204570E-002
   3.7325688424174881E-004   4.3061923035032403E-002
   3.7704301761985840E-004   4.2990590174057888E-002
   3.8082915099796799E-004   4.3336323074763441E-002
   3.8461528437607758E-004   4.4185423583242386E-002
   3.8840141775418717E-004   4.5527676750435182E-002
   3.9218755113229676E-004   4.7249062730902770E-002
   3.9597368451040635E-004   4.9145319336919444E-002
   3.9975981788851594E-004   5.0957052977864063E-002
   4.0354595126662553E-004   5.2418643658100519E-002
   4.0733208464473512E-004   5.3308219305288458E-002
   4.1111821802284471E-004   5.3487677292039022E-002
   4.1490435140095430E-004   5.2927200742749966E-002
   4.1869048477906389E-004   5.1712377424313338E-002
   4.2247661815717348E-004   5.0031938434804447E-002
   4.2626275153528307E-004   4.8144190793307416E-002
   4.3004888491339266E-004   4.6325489024251765E-002
   4.3383501829150225E-004   4.4813995588875756E-002
   4.3762115166961184E-004   4.3768859945913771E-002
   4.4140728504772143E-004   4.3260471664255694E-002
   4.4519341842583102E-004   4.3291301981632259E-002
   4.4897955180394061E-004   4.3829167165171212E-002
   4.5276568518205020E-004   4.4828914363865942E-002
   4.5655181856015979E-004   4.6229922140216081E-002
   4.6033795193826938E-004   4.7937292632304652E-002
   4.6412408531637897E-004   4.9808331685708834E-002
   4.6791021869448855E-004   5.1662111811433716E-002
   4.7169635207259814E-004   5.3312009711713314E-002
   4.7548248545070773E-004   5.4603937917057498E-002
   4.7926861882881732E-004   5.5440297223128550E-002
   4.8305475220692691E-004   5.5782670953992836E-002
   4.8684088558503650E-004   5.5643127391020925E-002
   4.9062701896314615E-004   5.5080378098067422E-002
   4.9441315234125579E-004   5.4208228510987430E-002
   4.9819928571936544E-004   5.3207856854902001E-002
   5.0198541909747508E-004   5.2325860703442958E-002
   5.0577155247558472E-004   5.1844356452580183E-002
   5.0955768585369437E-004   5.2024356113990360E-002
   5.1334381923180401E-004   5.3038714654107082E-002
   5.1712995260991366E-004   5.4917074806811420E-002
   5.2091608598802330E-004   5.7520605006267024E-002
   5.2470221936613294E-004   6.0553712904690728E-002
   5.2848835274424259E-004   6.3609681891722586E-002
   5.3227448612235223E-004   6.6240746400407294E-002
   5.3606061950046188E-004   6.8040156898598811E-002
   5.3984675287857152E-004   6.8722389882260732E-002
   5.4363288625668116E-004   6.8186855314283742E-002
   5.4741901963479081E-004   6.6550995571324323E-002
   5.5120515301290045E-004   6.4142137741980423E-002
   5.5499128639101010E-004   6.1444727863841156E-002
   5.5877741976911974E-004   5.9009710914744287E-002
   5.6256355314722938E-004   5.7343106569921795E-002
   5.6634968652533903E-004   5.6797916589083099E-002
   5.7013581990344867E-004   5.7494930937572603E-002
   5.7392195328155832E-004   5.9293073499901816E-002
   5.7770808665966796E-004   6.1819519891709765E-002
   5.8149422003777760E-004   6.4555854354033354E-002
   5.8528035341588725E-004   6.6961867343078976E-002
   5.8906648679399689E-004   6.8607107583144811E-002
   5.9285262017210654E-004   6.9276205453707912E-002
   5.9663875355021618E-004   6.9019945259706159E-002
   6.0042488692832582E-004   6.8139128568381099E-002
   6.0421102030643547E-004   6.7107400248415397E-002
   6.0799715368454511E-004   6.6455362723774211E-002
   6.1178328706265475E-004   6.6646060481479086E-002
   6.1556942044076440E-004   6.7970203201649773E-002
   6.1935555381887404E-004   7.0481453523298293E-002
   6.2314168719698369E-004   7.3982250481089334E-002
   6.2692782057509333E-004   7.8061639959258425E-002
   6.3071395395320297E-004   8.2178291085582694E-002
   6.3450008733131262E-004   8.5773263624517981E-002
   6.3828622070942226E-004   8.8389042390805944E-002
   6.4207235408753191E-004   8.9767369418790349E-002
   6.4585848746564155E-004   8.9902148595019007E-002
   6.4964462084375119E-004   8.9035473447691235E-002
   6.5343075422186084E-004   8.7600334316778938E-002
   6.5721688759997048E-004   8.6126389313731039E-002
   6.6100302097808013E-004   8.5131090518470356E-002
   6.6478915435618977E-004   8.5017743866753676E-002
   6.6857528773429941E-004   8.5998159450696179E-002
   6.7236142111240906E-004   8.8053259739439144E-002
   6.7614755449051870E-004   9.0940247033862928E-002
   6.7993368786862835E-004   9.4247695357861289E-002
   6.8371982124673799E-004   9.7489593025582438E-002
   6.8750595462484763E-004  0.10021863579223271     
   6.9129208800295728E-004  0.10213257325272143     
   6.9507822138106692E-004  0.10314811584968361     
   6.9886435475917657E-004  0.10342408108346307     
   7.0265048813728621E-004  0.10332610910475387     
   7.0643662151539585E-004  0.10333730452696430     
   7.1022275489350550E-004  0.10393230578726713     
   7.1400888827161514E-004  0.10544556016181689     
   7.1779502164972479E-004  0.10797327905437719     
   7.2158115502783443E-004  0.11134529396559958     
   7.2536728840594407E-004  0.11518355052705656     
   7.2915342178405372E-004  0.11903278163413815     
   7.3293955516216336E-004  0.12251919731958522     
   7.3672568854027301E-004  0.12547972761735604     
   7.4051182191838265E-004  0.12801497716928564     
   7.4429795529649229E-004  0.13044900537969989     
   7.4808408867460194E-004  0.13321431488385838     
   7.5187022205271158E-004  0.13670558350689135     
   7.5565635543082123E-004  0.14115196904065186     
   7.5944248880893087E-004  0.14654644881360596     
   7.6322862218704051E-004  0.15264964292383321     
   7.6701475556515016E-004  0.15906336082651742     
   7.7080088894325980E-004  0.16535041332768724     
   7.7458702232136945E-004  0.17116399794214801     
   7.7837315569947909E-004  0.17634496394805585     
   7.8215928907758873E-004  0.18095288135569507     
   7.8594542245569838E-004  0.18521904289910318     
   7.8973155583380802E-004  0.18944076845362584     
   7.9351768921191767E-004  0.19386318517473314     
   7.9730382259002731E-004  0.19860193897724129     
   8.0108995596813695E-004  0.20364088729555244     
   8.0487608934624660E-004  0.20890002005581193     
   8.0866222272435624E-004  0.21433087643008950     
   8.1244835610246589E-004  0.21998221129521020     
   8.1623448948057553E-004  0.22599817427553373     
   8.2002062285868517E-004  0.23255433246833151     
   8.2380675623679482E-004  0.23977666829207839     
   8.2759288961490446E-004  0.24769917406385578     
   8.3137902299301411E-004  0.25628966520892221     
   8.3516515637112375E-004  0.26552791057312336     
   8.3895128974923339E-004  0.27548435594454945     
   8.4273742312734304E-004  0.28634306051226732     
   8.4652355650545268E-004  0.29833960995876391     
   8.5030968988356233E-004  0.31162618333200887     
   8.5409582326167197E-004  0.32611016524393927     
   8.5788195663978161E-004  0.34132740632329617     
   8.6166809001789126E-004  0.35640561196347581     
   8.6545422339600090E-004  0.37015121832699932     
   8.6924035677411055E-004  0.38125736369861235     
   8.7302649015222019E-004  0.38858600752930822     
   8.7681262353032983E-004  0.39143793352941286     
   8.8059875690843948E-004  0.38971317288866641     
   8.8438489028654912E-004  0.38389877206423167     
   8.8817102366465877E-004  0.37489387041398176     
   8.9195715704276841E-004  0.36375721612784401     
   8.9574329042087805E-004  0.35149275583301731     
   8.9952942379898770E-004  0.33895141637140119     
   9.0331555717709734E-004  0.32684358751389359     
   9.0710169055520698E-004  0.31578361891833517     
   9.1088782393331663E-004  0.30627668281369869     
   9.1467395731142627E-004  0.29861773003550718     
   9.1846009068953592E-004  0.29275877795460126     
   9.2224622406764556E-004  0.28825095604286161     
   9.2603235744575520E-004  0.28434382570993827     
   9.2981849082386485E-004  0.28024011373697233     
   9.3360462420197449E-004  0.27541210606836286     
   9.3739075758008414E-004  0.26984139362968290     
   9.4117689095819378E-004  0.26406953077902900     
   9.4496302433630342E-004  0.25902622590878022     
   9.4874915771441307E-004  0.25569290835636899     
   9.5253529109252271E-004  0.25472352096312656     
   9.5632142447063236E-004  0.25616049850143086     
   9.6010755784874200E-004  0.25935218670372340     
   9.6389369122685164E-004  0.26311171406782002     
   9.6767982460496129E-004  0.26607594328776130     
   9.7146595798307093E-004  0.26715009855460298     
   9.7525209136118058E-004  0.26588493523351431     
   9.7903822473929011E-004  0.26264884911146741     
   9.8282435811739965E-004  0.25852743217459428     
   9.8661049149550918E-004  0.25498156535835953     
   9.9039662487361872E-004  0.25338024960573013     
   9.9418275825172825E-004  0.25456161531394234     
   9.9796889162983779E-004  0.25855648218130550     
   1.0017550250079473E-003  0.26455041979584304     
   1.0055411583860569E-003  0.27108869435542737     
   1.0093272917641664E-003  0.27646380479306298     
   1.0131134251422759E-003  0.27917837549882990     
   1.0168995585203855E-003  0.27835481169854387     
   1.0206856918984950E-003  0.27397527273021921     
   1.0244718252766045E-003  0.26688330072861455     
   1.0282579586547141E-003  0.25854981468033766     
   1.0320440920328236E-003  0.25067565963759048     
   1.0358302254109331E-003  0.24474454511321564     
   1.0396163587890427E-003  0.24164314288523600     
   1.0434024921671522E-003  0.24143798983598261     
   1.0471886255452618E-003  0.24335917710299793     
   1.0509747589233713E-003  0.24599945377645049     
   1.0547608923014808E-003  0.24769319115921087     
   1.0585470256795904E-003  0.24698975701447479     
   1.0623331590576999E-003  0.24309081467343902     
   1.0661192924358094E-003  0.23610748222503986     
   1.0699054258139190E-003  0.22703612415195706     
   1.0736915591920285E-003  0.21744852079401408     
   1.0774776925701380E-003  0.20900384752561654     
   1.0812638259482476E-003  0.20295929590763817     
   1.0850499593263571E-003  0.19984626107054962     
   1.0888360927044666E-003  0.19939881311686861     
   1.0926222260825762E-003  0.20071838389674287     
   1.0964083594606857E-003  0.20258511412043007     
   1.1001944928387952E-003  0.20380527459582728     
   1.1039806262169048E-003  0.20350391866703857     
   1.1077667595950143E-003  0.20130612468345549     
   1.1115528929731239E-003  0.19738187957093081     
   1.1153390263512334E-003  0.19235785149546517     
   1.1191251597293429E-003  0.18712760590223690     
   1.1229112931074525E-003  0.18261578515233842     
   1.1266974264855620E-003  0.17955980261389909     
   1.1304835598636715E-003  0.17835840607440279     
   1.1342696932417811E-003  0.17900812364699567     
   1.1380558266198906E-003  0.18112333419448143     
   1.1418419599980001E-003  0.18402498819881433     
   1.1456280933761097E-003  0.18688314156629943     
   1.1494142267542192E-003  0.18889614786185713     
   1.1532003601323287E-003  0.18947673857724187     
   1.1569864935104383E-003  0.18839947998685169     
   1.1607726268885478E-003  0.18586187840440585     
   1.1645587602666574E-003  0.18243312017997487     
   1.1683448936447669E-003  0.17890295537071554     
   1.1721310270228764E-003  0.17607773728413761     
   1.1759171604009860E-003  0.17458258330354623     
   1.1797032937790955E-003  0.17471603491586657     
   1.1834894271572050E-003  0.17638095141207011     
   1.1872755605353146E-003  0.17909937759926237     
   1.1910616939134241E-003  0.18211331010121828     
   1.1948478272915336E-003  0.18456599764690898     
   1.1986339606696432E-003  0.18573672753943790     
   1.2024200940477527E-003  0.18526888981588294     
   1.2062062274258622E-003  0.18330853110988657     
   1.2099923608039718E-003  0.18048403218943357     
   1.2137784941820813E-003  0.17771324925390977     
   1.2175646275601909E-003  0.17589981016998651     
   1.2213507609383004E-003  0.17563561871433001     
   1.2251368943164099E-003  0.17702999276634424     
   1.2289230276945195E-003  0.17973225826976316     
   1.2327091610726290E-003  0.18312863910204438     
   1.2364952944507385E-003  0.18661718000096922     
   1.2402814278288481E-003  0.18983421797188788     
   1.2440675612069576E-003  0.19273866319796804     
   1.2478536945850671E-003  0.19553974379351544     
   1.2516398279631767E-003  0.19853603064789002     
   1.2554259613412862E-003  0.20197014306096348     
   1.2592120947193957E-003  0.20597322970998266     
   1.2629982280975053E-003  0.21059964144616389     
   1.2667843614756148E-003  0.21588954567658783     
   1.2705704948537243E-003  0.22189074427118347     
   1.2743566282318339E-003  0.22862090292720538     
   1.2781427616099434E-003  0.23601294664034222     
   1.2819288949880530E-003  0.24390724931726859     
   1.2857150283661625E-003  0.25211848363876588     
   1.2895011617442720E-003  0.26054456816925819     
   1.2932872951223816E-003  0.26925018169508808     
   1.2970734285004911E-003  0.27847324131186374     
   1.3008595618786006E-003  0.28855261296273105     
   1.3046456952567102E-003  0.29981944660945453     
   1.3084318286348197E-003  0.31250490174040874     
   1.3122179620129292E-003  0.32669492352765833     
   1.3160040953910388E-003  0.34232918985689298     
   1.3197902287691483E-003  0.35921652238870344     
   1.3235763621472578E-003  0.37703104352309180     
   1.3273624955253674E-003  0.39526143452604684     
   1.3311486289034769E-003  0.41310743037382897     
   1.3349347622815865E-003  0.42935026856112840     
   1.3387208956596960E-003  0.44225932317416150     
   1.3425070290378055E-003  0.44962003410064860     
   1.3462931624159151E-003  0.44895924196129661     
   1.3500792957940246E-003  0.43799053186712789     
   1.3538654291721341E-003  0.41521041939031589     
   1.3576515625502437E-003  0.38047847716048017     
   1.3614376959283532E-003  0.33536227546208192     
   1.3652238293064627E-003  0.28306666394932400     
   1.3690099626845723E-003  0.22790212375654378     
   1.3727960960626818E-003  0.17442730968179312     
   1.3765822294407913E-003  0.12653801976082862     
   1.3803683628189009E-003   8.6794721802928979E-002
   1.3841544961970104E-003   5.6172519397911791E-002
   1.3879406295751200E-003   3.4241187819068403E-002
   1.3917267629532295E-003   1.9630234773989286E-002
