#
# ABINIT package : a2f file
#
# a2f function integrated over the FS. omega in a.u.
#  number of kpoints integrated over :      32768
#  number of energy points :        400
#  between omega_min =    -0.535645E-05 Ha and omega_max =     0.150531E-02 Ha
#  and the smearing width for gaussians is     0.200000E-04
# The DOS at Fermi level for spin    1 is     0.173457E+02
#
  -5.3564535692119267E-006   9.1446216590378745E-004
  -1.5703201911023107E-006   6.4765216892348520E-004
   2.2158131870073053E-006   4.7034591047145897E-004
   6.0019465651169214E-006   3.9847142158202636E-004
   9.7880799432265365E-006   4.4095871139178335E-004
   1.3574213321336153E-005   6.0308502537055229E-004
   1.7360346699445770E-005   8.8503021933654911E-004
   2.1146480077555387E-005   1.2759096502529598E-003
   2.4932613455665004E-005   1.7466425350057776E-003
   2.8718746833774621E-005   2.2466686488000812E-003
   3.2504880211884234E-005   2.7087145483373127E-003
   3.6291013589993851E-005   3.0624972422039231E-003
   4.0077146968103468E-005   3.2537970147602751E-003
   4.3863280346213085E-005   3.2620473875775596E-003
   4.7649413724322702E-005   3.1094182701677311E-003
   5.1435547102432319E-005   2.8575158907160193E-003
   5.5221680480541936E-005   2.5925503986627290E-003
   5.9007813858651552E-005   2.4036744412789324E-003
   6.2793947236761163E-005   2.3607010081273579E-003
   6.6580080614870779E-005   2.4968032494069449E-003
   7.0366213992980396E-005   2.8002590520673507E-003
   7.4152347371090013E-005   3.2175663504436167E-003
   7.7938480749199630E-005   3.6680568680515549E-003
   8.1724614127309247E-005   4.0670019220711137E-003
   8.5510747505418864E-005   4.3507043282870750E-003
   8.9296880883528481E-005   4.4950835476799435E-003
   9.3083014261638098E-005   4.5207057237587264E-003
   9.6869147639747714E-005   4.4822526436796364E-003
   1.0065528101785733E-004   4.4468392066663023E-003
   1.0444141439596695E-004   4.4700364263390762E-003
   1.0822754777407657E-004   4.5787222191864584E-003
   1.1201368115218618E-004   4.7662601971793185E-003
   1.1579981453029580E-004   5.0002722908987062E-003
   1.1958594790840542E-004   5.2388883511884721E-003
   1.2337208128651502E-004   5.4490627089175117E-003
   1.2715821466462464E-004   5.6203383126255989E-003
   1.3094434804273425E-004   5.7689752046650809E-003
   1.3473048142084387E-004   5.9305261885887264E-003
   1.3851661479895349E-004   6.1433947676119418E-003
   1.4230274817706310E-004   6.4302759485199241E-003
   1.4608888155517272E-004   6.7863258541783992E-003
   1.4987501493328234E-004   7.1805229707313286E-003
   1.5366114831139195E-004   7.5702796306001685E-003
   1.5744728168950157E-004   7.9220594687803847E-003
   1.6123341506761119E-004   8.2269761465384398E-003
   1.6501954844572080E-004   8.5028781278026766E-003
   1.6880568182383042E-004   8.7821411476920897E-003
   1.7259181520194004E-004   9.0925975058654181E-003
   1.7637794858004966E-004   9.4425289346973997E-003
   1.8016408195815927E-004   9.8173936488182463E-003
   1.8395021533626889E-004   1.0188466973931784E-002
   1.8773634871437851E-004   1.0526952765235990E-002
   1.9152248209248812E-004   1.0815325321077679E-002
   1.9530861547059774E-004   1.1050964691151226E-002
   1.9909474884870736E-004   1.1242551912963765E-002
   2.0288088222681697E-004   1.1403490871609504E-002
   2.0666701560492659E-004   1.1546921414859902E-002
   2.1045314898303621E-004   1.1684367757704874E-002
   2.1423928236114582E-004   1.1826993294840321E-002
   2.1802541573925544E-004   1.1986949382421881E-002
   2.2181154911736506E-004   1.2177128473396902E-002
   2.2559768249547467E-004   1.2409754652598224E-002
   2.2938381587358429E-004   1.2695707829360713E-002
   2.3316994925169391E-004   1.3045803650162098E-002
   2.3695608262980353E-004   1.3472688080534810E-002
   2.4074221600791314E-004   1.3989645213510581E-002
   2.4452834938602276E-004   1.4603048983175491E-002
   2.4831448276413235E-004   1.5299412997382559E-002
   2.5210061614224194E-004   1.6034036010125315E-002
   2.5588674952035153E-004   1.6731748342155239E-002
   2.5967288289846112E-004   1.7307163591687193E-002
   2.6345901627657071E-004   1.7701666414809997E-002
   2.6724514965468030E-004   1.7921876035598434E-002
   2.7103128303278989E-004   1.8057571488752280E-002
   2.7481741641089948E-004   1.8262407552644251E-002
   2.7860354978900907E-004   1.8697844823724580E-002
   2.8238968316711866E-004   1.9461306848533023E-002
   2.8617581654522825E-004   2.0531676955496660E-002
   2.8996194992333784E-004   2.1760489824280582E-002
   2.9374808330144743E-004   2.2916574578439642E-002
   2.9753421667955702E-004   2.3766054925410875E-002
   3.0132035005766661E-004   2.4152757542905384E-002
   3.0510648343577620E-004   2.4045561953695126E-002
   3.0889261681388578E-004   2.3537617781592895E-002
   3.1267875019199537E-004   2.2806316075797632E-002
   3.1646488357010496E-004   2.2058468885816324E-002
   3.2025101694821455E-004   2.1484717394197255E-002
   3.2403715032632414E-004   2.1233941015555643E-002
   3.2782328370443373E-004   2.1403237499699870E-002
   3.3160941708254332E-004   2.2032283114219384E-002
   3.3539555046065291E-004   2.3095469942714622E-002
   3.3918168383876250E-004   2.4495524579233936E-002
   3.4296781721687209E-004   2.6069179320748367E-002
   3.4675395059498168E-004   2.7613065007255574E-002
   3.5054008397309127E-004   2.8927638059983215E-002
   3.5432621735120086E-004   2.9865695041937038E-002
   3.5811235072931045E-004   3.0367547699948306E-002
   3.6189848410742004E-004   3.0470368939086064E-002
   3.6568461748552963E-004   3.0291230183111452E-002
   3.6947075086363922E-004   2.9994468713344706E-002
   3.7325688424174881E-004   2.9757705962921505E-002
   3.7704301761985840E-004   2.9745823335592440E-002
   3.8082915099796799E-004   3.0093186498504627E-002
   3.8461528437607758E-004   3.0888456418944374E-002
   3.8840141775418717E-004   3.2157575854992244E-002
   3.9218755113229676E-004   3.3847233405157447E-002
   3.9597368451040635E-004   3.5817379928260180E-002
   3.9975981788851594E-004   3.7852010631264768E-002
   4.0354595126662553E-004   3.9691775388774116E-002
   4.0733208464473512E-004   4.1083636558370745E-002
   4.1111821802284471E-004   4.1836106061427306E-002
   4.1490435140095430E-004   4.1865677804145907E-002
   4.1869048477906389E-004   4.1220896146236800E-002
   4.2247661815717348E-004   4.0074883828209194E-002
   4.2626275153528307E-004   3.8685477859618185E-002
   4.3004888491339266E-004   3.7333481314936343E-002
   4.3383501829150225E-004   3.6259624339181729E-002
   4.3762115166961184E-004   3.5623053070697436E-002
   4.4140728504772143E-004   3.5494543483228454E-002
   4.4519341842583102E-004   3.5879599817981209E-002
   4.4897955180394061E-004   3.6750717560875813E-002
   4.5276568518205020E-004   3.8065369631198373E-002
   4.5655181856015979E-004   3.9759480648172439E-002
   4.6033795193826938E-004   4.1726447807562753E-002
   4.6412408531637897E-004   4.3804389700901655E-002
   4.6791021869448855E-004   4.5789708127642118E-002
   4.7169635207259814E-004   4.7476646919057751E-002
   4.7548248545070773E-004   4.8704336093067686E-002
   4.7926861882881732E-004   4.9388428891690900E-002
   4.8305475220692691E-004   4.9526385993737466E-002
   4.8684088558503650E-004   4.9183567431271502E-002
   4.9062701896314615E-004   4.8477305003627021E-002
   4.9441315234125579E-004   4.7571072053831820E-002
   4.9819928571936544E-004   4.6675952088008149E-002
   5.0198541909747508E-004   4.6044346064110932E-002
   5.0577155247558472E-004   4.5941080358428837E-002
   5.0955768585369437E-004   4.6589898051162891E-002
   5.1334381923180401E-004   4.8109886730355780E-002
   5.1712995260991366E-004   5.0465875770562975E-002
   5.2091608598802330E-004   5.3453758498769356E-002
   5.2470221936613294E-004   5.6728611275433972E-002
   5.2848835274424259E-004   5.9868047606325740E-002
   5.3227448612235223E-004   6.2452879552701880E-002
   5.3606061950046188E-004   6.4145163350031870E-002
   5.3984675287857152E-004   6.4748625985618175E-002
   5.4363288625668116E-004   6.4244012274768891E-002
   5.4741901963479081E-004   6.2797748832812264E-002
   5.5120515301290045E-004   6.0744463503408112E-002
   5.5499128639101010E-004   5.8543421738008798E-002
   5.5877741976911974E-004   5.6709084444736449E-002
   5.6256355314722938E-004   5.5719828380602424E-002
   5.6634968652533903E-004   5.5916983072230697E-002
   5.7013581990344867E-004   5.7415845693058201E-002
   5.7392195328155832E-004   6.0055868349944315E-002
   5.7770808665966796E-004   6.3413507840324360E-002
   5.8149422003777760E-004   6.6886302212999793E-002
   5.8528035341588725E-004   6.9834089389562967E-002
   5.8906648679399689E-004   7.1741480133354685E-002
   5.9285262017210654E-004   7.2354730316555690E-002
   5.9663875355021618E-004   7.1752050272340551E-002
   6.0042488692832582E-004   7.0327369839147974E-002
   6.0421102030643547E-004   6.8694644187172763E-002
   6.0799715368454511E-004   6.7541671193325853E-002
   6.1178328706265475E-004   6.7471766597343483E-002
   6.1556942044076440E-004   6.8868457323684476E-002
   6.1935555381887404E-004   7.1808273494555153E-002
   6.2314168719698369E-004   7.6036103678724709E-002
   6.2692782057509333E-004   8.1008821387402827E-002
   6.3071395395320297E-004   8.6003674656320417E-002
   6.3450008733131262E-004   9.0274955504671905E-002
   6.3828622070942226E-004   9.3226604040538189E-002
   6.4207235408753191E-004   9.4556599039704814E-002
   6.4585848746564155E-004   9.4330432736770456E-002
   6.4964462084375119E-004   9.2959811211766399E-002
   6.5343075422186084E-004   9.1093150142576448E-002
   6.5721688759997048E-004   8.9452811167106142E-002
   6.6100302097808013E-004   8.8667291787396366E-002
   6.6478915435618977E-004   8.9140718610554587E-002
   6.6857528773429941E-004   9.0983806902471070E-002
   6.7236142111240906E-004   9.4011413355514939E-002
   6.7614755449051870E-004   9.7799358144093990E-002
   6.7993368786862835E-004  0.10178684540601618     
   6.8371982124673799E-004  0.10540575767656327     
   6.8750595462484763E-004  0.10821190611209340     
   6.9129208800295728E-004  0.10998895975538872     
   6.9507822138106692E-004  0.11079848990999200     
   6.9886435475917657E-004  0.11096137294471901     
   7.0265048813728621E-004  0.11097337310990177     
   7.0643662151539585E-004  0.11137511275871209     
   7.1022275489350550E-004  0.11260915481067235     
   7.1400888827161514E-004  0.11490227501835161     
   7.1779502164972479E-004  0.11820763571803214     
   7.2158115502783443E-004  0.12222787571983756     
   7.2536728840594407E-004  0.12651667831968064     
   7.2915342178405372E-004  0.13062906358279214     
   7.3293955516216336E-004  0.13427042417579305     
   7.3672568854027301E-004  0.13739199418648215     
   7.4051182191838265E-004  0.14019964891316747     
   7.4429795529649229E-004  0.14307651143679648     
   7.4808408867460194E-004  0.14645262384498101     
   7.5187022205271158E-004  0.15067182867332585     
   7.5565635543082123E-004  0.15590050766566024     
   7.5944248880893087E-004  0.16210050084652014     
   7.6322862218704051E-004  0.16906269497380558     
   7.6701475556515016E-004  0.17648037180965878     
   7.7080088894325980E-004  0.18403606935837299     
   7.7458702232136945E-004  0.19147826839972812     
   7.7837315569947909E-004  0.19866923963790351     
   7.8215928907758873E-004  0.20559181150333175     
   7.8594542245569838E-004  0.21231333316687262     
   7.8973155583380802E-004  0.21892054602382327     
   7.9351768921191767E-004  0.22545400242161873     
   7.9730382259002731E-004  0.23187510506095332     
   8.0108995596813695E-004  0.23808563756169818     
   8.0487608934624660E-004  0.24399201920071184     
   8.0866222272435624E-004  0.24957911522252393     
   8.1244835610246589E-004  0.25494939709265318     
   8.1623448948057553E-004  0.26030127910471562     
   8.2002062285868517E-004  0.26585661620604917     
   8.2380675623679482E-004  0.27177914285610355     
   8.2759288961490446E-004  0.27813190588473857     
   8.3137902299301411E-004  0.28489759303695444     
   8.3516515637112375E-004  0.29204605434046221     
   8.3895128974923339E-004  0.29960286904142214     
   8.4273742312734304E-004  0.30766959975554192     
   8.4652355650545268E-004  0.31637128636661865     
   8.5030968988356233E-004  0.32574479120086758     
   8.5409582326167197E-004  0.33561280374698405     
   8.5788195663978161E-004  0.34549933334834548     
   8.6166809001789126E-004  0.35463145760337678     
   8.6545422339600090E-004  0.36204495636143280     
   8.6924035677411055E-004  0.36677632870145011     
   8.7302649015222019E-004  0.36808914543810062     
   8.7681262353032983E-004  0.36566031373973490     
   8.8059875690843948E-004  0.35965570890504217     
   8.8438489028654912E-004  0.35066256122130179     
   8.8817102366465877E-004  0.33950747029939765     
   8.9195715704276841E-004  0.32704311122925284     
   8.9574329042087805E-004  0.31399855851076475     
   8.9952942379898770E-004  0.30094460738203582     
   9.0331555717709734E-004  0.28835052335371197     
   9.0710169055520698E-004  0.27665137293079800     
   9.1088782393331663E-004  0.26624569297190231     
   9.1467395731142627E-004  0.25740242277566266     
   9.1846009068953592E-004  0.25013257846348486     
   9.2224622406764556E-004  0.24412129276979452     
   9.2603235744575520E-004  0.23879157433678130     
   9.2981849082386485E-004  0.23349852501878710     
   9.3360462420197449E-004  0.22777792493871379     
   9.3739075758008414E-004  0.22153951574713260     
   9.4117689095819378E-004  0.21511779634742773     
   9.4496302433630342E-004  0.20915470201274186     
   9.4874915771441307E-004  0.20435665566232264     
   9.5253529109252271E-004  0.20121517156404736     
   9.5632142447063236E-004  0.19979240372524912     
   9.6010755784874200E-004  0.19965124776887930     
   9.6389369122685164E-004  0.19996185719898185     
   9.6767982460496129E-004  0.19975548946404414     
   9.7146595798307093E-004  0.19824088326437769     
   9.7525209136118058E-004  0.19507014191619443     
   9.7903822473929011E-004  0.19045671868142558     
   9.8282435811739965E-004  0.18510505829669488     
   9.8661049149550918E-004  0.17998452152782923     
   9.9039662487361872E-004  0.17603432124724874     
   9.9418275825172825E-004  0.17389843802175817     
   9.9796889162983779E-004  0.17376274922369156     
   1.0017550250079473E-003  0.17532344368091485     
   1.0055411583860569E-003  0.17787897021034915     
   1.0093272917641664E-003  0.18051525099354335     
   1.0131134251422759E-003  0.18234010788543659     
   1.0168995585203855E-003  0.18271175771152781     
   1.0206856918984950E-003  0.18140134225633114     
   1.0244718252766045E-003  0.17864076823071087     
   1.0282579586547141E-003  0.17503890771821359     
   1.0320440920328236E-003  0.17139168193906337     
   1.0358302254109331E-003  0.16844549326757505     
   1.0396163587890427E-003  0.16668387400534751     
   1.0434024921671522E-003  0.16619352594032066     
   1.0471886255452618E-003  0.16663977479421502     
   1.0509747589233713E-003  0.16735505902588230     
   1.0547608923014808E-003  0.16752099272919588     
   1.0585470256795904E-003  0.16640185372119995     
   1.0623331590576999E-003  0.16356594992079598     
   1.0661192924358094E-003  0.15902238010531344     
   1.0699054258139190E-003  0.15321905919170747     
   1.0736915591920285E-003  0.14689636094273581     
   1.0774776925701380E-003  0.14085044636647276     
   1.0812638259482476E-003  0.13569886996619790     
   1.0850499593263571E-003  0.13173481065438492     
   1.0888360927044666E-003  0.12890897261414194     
   1.0926222260825762E-003  0.12691899631191361     
   1.0964083594606857E-003  0.12534851301095323     
   1.1001944928387952E-003  0.12379662266562826     
   1.1039806262169048E-003  0.12196358142544032     
   1.1077667595950143E-003  0.11968766487137597     
   1.1115528929731239E-003  0.11694526468291264     
   1.1153390263512334E-003  0.11382923007622520     
   1.1191251597293429E-003  0.11051640238751162     
   1.1229112931074525E-003  0.10723082034756785     
   1.1266974264855620E-003  0.10420595152241202     
   1.1304835598636715E-003  0.10164706137256042     
   1.1342696932417811E-003   9.9694373083561438E-002
   1.1380558266198906E-003   9.8390656379150981E-002
   1.1418419599980001E-003   9.7662211974701416E-002
   1.1456280933761097E-003   9.7324960510845382E-002
   1.1494142267542192E-003   9.7122498033359234E-002
   1.1532003601323287E-003   9.6790641165312011E-002
   1.1569864935104383E-003   9.6129596631167755E-002
   1.1607726268885478E-003   9.5058962975762301E-002
   1.1645587602666574E-003   9.3636613019685566E-002
   1.1683448936447669E-003   9.2037030863771352E-002
   1.1721310270228764E-003   9.0499638642683761E-002
   1.1759171604009860E-003   8.9265397448847844E-002
   1.1797032937790955E-003   8.8518483403857054E-002
   1.1834894271572050E-003   8.8343397474207108E-002
   1.1872755605353146E-003   8.8702883923538756E-002
   1.1910616939134241E-003   8.9441349410721779E-002
   1.1948478272915336E-003   9.0318850429526268E-002
   1.1986339606696432E-003   9.1075996125510067E-002
   1.2024200940477527E-003   9.1517746457105115E-002
   1.2062062274258622E-003   9.1589338574030690E-002
   1.2099923608039718E-003   9.1411205954216770E-002
   1.2137784941820813E-003   9.1250254916334761E-002
   1.2175646275601909E-003   9.1431055953184556E-002
   1.2213507609383004E-003   9.2220331715690010E-002
   1.2251368943164099E-003   9.3734876347039989E-002
   1.2289230276945195E-003   9.5915242443181087E-002
   1.2327091610726290E-003   9.8576505586846344E-002
   1.2364952944507385E-003  0.10150815490912213     
   1.2402814278288481E-003  0.10456933570115184     
   1.2440675612069576E-003  0.10772945331986201     
   1.2478536945850671E-003  0.11103710622433934     
   1.2516398279631767E-003  0.11454323448987182     
   1.2554259613412862E-003  0.11822996968010575     
   1.2592120947193957E-003  0.12198814126038449     
   1.2629982280975053E-003  0.12565052306569094     
   1.2667843614756148E-003  0.12905114173312954     
   1.2705704948537243E-003  0.13206954975338880     
   1.2743566282318339E-003  0.13463846081755229     
   1.2781427616099434E-003  0.13672484890762571     
   1.2819288949880530E-003  0.13831216360155296     
   1.2857150283661625E-003  0.13940291265525881     
   1.2895011617442720E-003  0.14003749292235612     
   1.2932872951223816E-003  0.14030856726918642     
   1.2970734285004911E-003  0.14035326398942463     
   1.3008595618786006E-003  0.14032263878713400     
   1.3046456952567102E-003  0.14034348873191171     
   1.3084318286348197E-003  0.14049059546848847     
   1.3122179620129292E-003  0.14077870333460535     
   1.3160040953910388E-003  0.14117156822787005     
   1.3197902287691483E-003  0.14159758603154296     
   1.3235763621472578E-003  0.14195979208893345     
   1.3273624955253674E-003  0.14213120375834390     
   1.3311486289034769E-003  0.14193349964968735     
   1.3349347622815865E-003  0.14110703885821618     
   1.3387208956596960E-003  0.13929035150623253     
   1.3425070290378055E-003  0.13603201258573583     
   1.3462931624159151E-003  0.13085194736390493     
   1.3500792957940246E-003  0.12335165238703637     
   1.3538654291721341E-003  0.11334893023335375     
   1.3576515625502437E-003  0.10099304918018548     
   1.3614376959283532E-003   8.6811985284597187E-002
   1.3652238293064627E-003   7.1660568014099563E-002
