#
# ABINIT package : phonon DOS file
#
# Phonon DOS integrated over the FS. omega in a.u. EXPERIMENTAL!!!
# number of kpoints integrated over :      32768
# number of energy points :        400
# between omega_min =     0.000000E+00 Ha and omega_max =     0.158844E-02 Ha
# The DOS at Fermi level for spin    1 is     0.375704E+02
# and the smearing width for gaussians is     0.200000E-04
#
   0.0000000000000000        2.5832325156609630       0.86117377209743939       0.86117375890203063       0.86088498466149332     
   3.9810414736645131E-006   2.4842912432758495       0.82842458977282507       0.82842451294491803       0.82744214055810950     
   7.9620829473290262E-006   2.2103010384131823       0.73779641045590549       0.73779599717119537       0.73470863078608206     
   1.1943124420993538E-005   1.8259320051410513       0.61163336250628186       0.61163130854682679       0.60266733408794471     
   1.5924165894658052E-005   1.4181808538533052       0.48074821499522874       0.48073878450252738       0.45669385435554993     
   1.9905207368322566E-005   1.0783532738563402       0.37934109768722318       0.37930109675352108       0.31971107941559895     
   2.3886248841987080E-005  0.89335196913730497       0.34337228950232113       0.34321554390000891       0.20676413573497693     
   2.7867290315651594E-005  0.94860921130756093       0.41282256453251676       0.41225514011024506       0.12353150666479801     
   3.1848331789316105E-005   1.3356941703477221       0.63470524070245971       0.63280763073890434        6.8181298906358753E-002
   3.5829373262980615E-005   2.1517410920512834        1.0614195314124857        1.0555569149800250        3.4764645658773047E-002
   3.9810414736645126E-005   3.4796982849013598        1.7400276344736416        1.7232951210663787        1.6375529361339469E-002
   4.3791456210309636E-005   5.3493235966271193        2.6931578577825590        2.6490398688627974        7.1258699817630484E-003
   4.7772497683974147E-005   7.6952202246153476        3.8999087782343236        3.7924468366815178        2.8646096995036860E-003
   5.1753539157638657E-005   10.340429750886919        5.2905888891917199        5.0487770168587227        1.0638448364798335E-003
   5.5734580631303168E-005   13.030076005687659        6.7661910334937305        6.2635199820642828        3.6499012963636001E-004
   5.9715622104967679E-005   15.513979637951211        8.2395935853072810        7.2742703445785324        1.1570806542170984E-004
   6.3696663578632196E-005   17.640978311761113        9.6767488706104601        7.9641954142071825        3.4026943441052680E-005
   6.7677705052296706E-005   19.406743789827139        11.106730933224799        8.3000028932953818        9.9633069591134985E-006
   7.1658746525961217E-005   20.914689915278156        12.582159659296714        8.3325241623570161        6.0936244141215376E-006
   7.5639787999625728E-005   22.264502016557998        14.104600145310371        8.1598846503900422        1.7220857584275320E-005
   7.9620829473290238E-005   23.441017184717165        15.562858759217026        7.8780905904842902        6.7835015854936671E-005
   8.3601870946954749E-005   24.292253415759838        16.738638680072377        7.5533606344534796        2.5410123402631001E-004
   8.7582912420619259E-005   24.638451226919123        17.401434405375081        7.2361351714132160        8.8165013085785991E-004
   9.1563953894283770E-005   24.468763263235420        17.458646301401696        7.0072869917353104        2.8299700984756684E-003
   9.5544995367948280E-005   24.114350567973421        17.083339526676713        7.0226065045266477        8.4045367700810916E-003
   9.9526036841612791E-005   24.282463042838408        16.740937726488863        7.5184268845851365        2.3098431764445176E-002
   1.0350707831527730E-004   25.899928252425511        17.080134691369995        8.7610324634183829        5.8761097637174325E-002
   1.0748811978894181E-004   29.808848869112794        18.717424381153464        10.953020686789136       0.13840380117029130     
   1.1146916126260632E-004   36.431258911958594        21.995406336223784        14.133941727742075       0.30191084799270246     
   1.1545020273627083E-004   45.539059351605424        26.810902732246181        18.118039634304463       0.61011698505472456     
   1.1943124420993534E-004   56.226374484042601        32.587008673715737        22.496775656047753        1.1425901542790582     
   1.2341228568359987E-004   67.104028049190433        38.413557819691995        26.706859077431020        1.9836111520671689     
   1.2739332715726439E-004   76.653778666041916        43.319479129356623        30.140841697375741        3.1934578393095725     
   1.3137436863092892E-004   83.626391134386196        46.588108704319332        32.268973700669704        4.7693087293970553     
   1.3535541010459344E-004   87.360785642422982        48.003004249500869        32.747989117595608        6.6097922753265719     
   1.3933645157825796E-004   87.936812353433481        47.930033131674435        31.503231660913432        8.5035475608456768     
   1.4331749305192249E-004   86.130809768668257        47.198643161443322        28.773820038114046        10.158346569110913     
   1.4729853452558701E-004   83.199961951344548        46.821254570318786        25.107482473486112        11.271224907539665     
   1.5127957599925154E-004   80.566391641670947        47.654477070938476        21.293719304021408        11.618195266710924     
   1.5526061747291606E-004   79.496963229429113        50.131181329791360        18.238333176443199        11.127448723194853     
   1.5924165894658058E-004   80.870283471630387        54.164631433411543        16.802248467321675        9.9034035708976038     
   1.6322270042024511E-004   85.083432963387224        59.253821262042599        17.638948345181323        8.1906633561633875     
   1.6720374189390963E-004   92.089837607762448        64.733117173090562        21.061857263362523        6.2948631713091991     
   1.7118478336757416E-004   101.50634179203679        70.048475942193193        26.962553362197166        4.4953124876464603     
   1.7516582484123868E-004   112.71221138178423        74.936545459411377        34.792558091427928        2.9831078309448058     
   1.7914686631490321E-004   124.89519216795580        79.436702507105451        43.617128787264896        1.8413608735858442     
   1.8312790778856773E-004   137.06130402983072        83.754446950954986        52.243473334895263        1.0633837439809699     
   1.8710894926223225E-004   148.07752473559222        88.071277430946665        59.414663661240148       0.59158364340562519     
   1.9108999073589678E-004   156.82131598345799        92.416722131824912        64.046104051389946       0.35848980024293670     
   1.9507103220956130E-004   162.45287972684804        96.669023349189558        65.465878741674487       0.31797763598367695     
   1.9905207368322583E-004   164.73134833413135        100.66463175111397        63.604304121939478       0.46241246107790562     
   2.0303311515689035E-004   164.22686375485344        104.33360266623578        59.067976067937927       0.82528502067973564     
   2.0701415663055487E-004   162.29552681091639        107.78054331446280        53.046142582822206        1.4688409136315512     
   2.1099519810421940E-004   160.78866158984221        111.28652813979060        47.046152208663059        2.4559812413890740     
   2.1497623957788392E-004   161.59819685757304        115.25994273888523        42.528528136713547        3.8097259819747311     
   2.1895728105154845E-004   166.20929626132693        120.16730907878889        40.569246210347977        5.4727409721903202     
   2.2293832252521297E-004   175.40057955933997        126.43939041767932        41.672396919902383        7.2887922217575971     
   2.2691936399887749E-004   189.13957265803981        134.32951426759800        45.781915858064252        9.0281425323771991     
   2.3090040547254202E-004   206.64076815032075        143.73984991058393        52.438043635507249        10.462874604229357     
   2.3488144694620654E-004   226.52889569140922        154.10123459582493        60.958384485733696        11.469276609851264     
   2.3886248841987107E-004   247.06689827348620        164.41996991895576        70.538500620018368        12.108427734511977     
   2.4284352989353559E-004   266.42863226580948        173.54292245836498        80.253036968285443        12.632672839159030     
   2.4682457136720011E-004   283.00057131274099        180.56963004724943        89.036645707441664        13.394295558049286     
   2.5080561284086464E-004   295.68769265795714        185.24132660263410        95.763157491263854        14.683208564059516     
   2.5478665431452916E-004   304.17898600352567        188.12835965214200        99.484458697463538        16.566167653919845     
   2.5876769578819369E-004   309.09560685799715        190.51835544231344        99.765027880762275        18.812223534922534     
   2.6274873726185821E-004   311.91809031922133        194.02535256105193        96.938062570359179        20.954675187811798     
   2.6672977873552274E-004   314.61793924431868        200.04308246285925        92.103257318105193        22.471599463353822     
   2.7071082020918726E-004   319.04058465030403        209.22928398618123        86.810308055494517        23.000992608627541     
   2.7469186168285178E-004   326.26017515610698        221.22030357141037        82.556911951731195        22.482959632966512     
   2.7867290315651631E-004   336.22682487279201        234.71756598074813        80.350604220710835        21.158654671333984     
   2.8265394463018083E-004   347.93549903973934        247.95138488878425        80.549963888161798        19.434150262793239     
   2.8663498610384536E-004   360.06971546628728        259.35252202237592        83.028084662072132        17.689108781839835     
   2.9061602757750988E-004   371.77484282710969        268.13979866634327        87.503714169966457        16.131329990800833     
   2.9459706905117440E-004   383.10685978089128        274.55224338337376        93.794284480211587        14.760331917307029     
   2.9857811052483893E-004   394.88258334164823        279.62860457380685        101.81768334605444        13.436295421787030     
   3.0255915199850345E-004   408.02809295764155        284.67422198144709        111.35502333708776        11.998847639106312     
   3.0654019347216798E-004   422.84605672218902        290.71324932367003        121.76325203254193        10.369555365977474     
   3.1052123494583250E-004   438.68248562463469        298.20426453672957        131.87976271683348        8.5984583710709064     
   3.1450227641949702E-004   454.21889532997727        307.11169121041343        140.25292855436030        6.8542755652030563     
   3.1848331789316155E-004   468.20533293075397        317.19436554965540        145.62547888645875        5.3854884946391142     
   3.2246435936682607E-004   480.15632528666339        328.25022252414914        147.42266869526679        4.4834340672455122     
   3.2644540084049060E-004   490.56252459540366        340.12750115323468        145.97372741573199        4.4612960264376662     
   3.3042644231415512E-004   500.51171362161040        352.52681551574659        142.34807643435514        5.6368216715093897     
   3.3440748378781965E-004   511.02090789711553        364.81224897219670        137.92011052451539        8.2885484004046646     
   3.3838852526148417E-004   522.55534574734168        376.06577878857524        133.92890984857320        12.560657110194215     
   3.4236956673514869E-004   535.02557416484910        385.43444595584748        131.26554066917203        18.325587539828316     
   3.4635060820881322E-004   548.16834543494599        392.57617796692330        130.52943602731958        25.062731440703718     
   3.5033164968247774E-004   561.94367306167260        397.90741257513599        132.19283312185215        31.843427364684498     
   3.5431269115614227E-004   576.62569286227153        402.48140640855547        136.65156703170237        37.492719422014765     
   3.5829373262980679E-004   592.56012201702083        407.57694737498389        144.06389349863869        40.919281143396283     
   3.6227477410347131E-004   609.83620400671180        414.24808131729463        154.08472586057576        41.503396828839648     
   3.6625581557713584E-004   628.15044909087510        423.05202216858663        165.72456688807540        39.373860034215646     
   3.7023685705080036E-004   646.93148713197070        433.99582098641520        177.50107001882779        35.434596126724109     
   3.7421789852446489E-004   665.56097785858344        446.59813186908104        187.85336598266318        31.109480006838691     
   3.7819893999812941E-004   683.47383750344250        459.96752519738999        195.61012284837756        27.896189457669458     
   3.8217998147179393E-004   700.07896237479292        472.90988642895667        200.27798678422582        26.891089161609266     
   3.8616102294545846E-004   714.65101737630459        484.15250134846156        202.05401142959562        28.444504598247967     
   3.9014206441912298E-004   726.41317525679096        492.71936793596933        201.64175775042489        32.052049570393862     
   3.9412310589278751E-004   734.89308121620445        498.35114518614614        200.02653821968639        36.515397810376740     
   3.9810414736645203E-004   740.38913000462730        501.75628695456180        198.30349754636094        40.329345503704204     
   4.0208518884011655E-004   744.21569689959063        504.50140181869614        197.53794165852079        42.176353422375321     
   4.0606623031378108E-004   748.44678079487289        508.50110216565258        198.58897011495895        41.356708514258074     
   4.1004727178744560E-004   755.15377648872288        515.27531498296128        201.88823782795831        37.990223677798546     
   4.1402831326111013E-004   765.48421854875846        525.29929813882381        207.27183910494023        32.913081304993774     
   4.1800935473477465E-004   779.11781204891213        537.78363522092309        214.00625572929306        27.327921098695828     
   4.2199039620843918E-004   794.48954679532937        551.04654984982074        221.06994779993863        22.373049145570292     
   4.2597143768210370E-004   809.72359311220725        563.33511328074826        227.59234768604833        18.796132145413356     
   4.2995247915576822E-004   823.74835029205599        573.67577592825091        233.22788093426578        16.844693429537987     
   4.3393352062943275E-004   836.90534912366684        582.27561715231616        238.25811774619319        16.371614225155309     
   4.3791456210309727E-004   850.67207786821450        590.23298276676007        243.37521644154535        17.063878659911634     
   4.4189560357676180E-004   866.69924405182144        598.73209832867985        249.29366254586481        18.673483177270818     
   4.4587664505042632E-004   885.80404296766869        608.22814363308419        256.41965507183517        21.156244262754740     
   4.4985768652409084E-004   907.54536306640387        618.14551278306772        264.72158197368469        24.678268309651461     
   4.5383872799775537E-004   930.56367453125915        627.28459648073533        273.77680129189491        29.502276758625115     
   4.5781976947141989E-004   953.34537043034811        634.67105960723870        282.87193181232317        35.802379010780960     
   4.6180081094508442E-004   974.85337067365663        640.29586900814638        291.08229083297005        43.475210832546033     
   4.6578185241874894E-004   994.67691435958841        645.27786160716357        297.37955375451639        52.019498997902389     
   4.6976289389241346E-004   1012.7798671682318        651.36894396961259        300.86922049164036        60.541702706973680     
   4.7374393536607799E-004   1029.2083972842418        660.13379884687140        301.16706967038135        67.907528766990296     
   4.7772497683974251E-004   1044.0474043025229        672.28283619481272        298.76018143280260        73.004386674901568     
   4.8170601831340704E-004   1057.5991822255710        687.44890941804601        295.11802755173710        75.032245255785142     
   4.8568705978707156E-004   1070.5144939186644        704.37230613343172        292.41468161855300        73.727506166673450     
   4.8966810126073609E-004   1083.6645898416537        721.27412019245583        292.93676574337690        69.453703905825321     
   4.9364914273440056E-004   1097.8252280803920        736.25962451555949        298.42290536485939        63.142698199962247     
   4.9763018420806502E-004   1113.4455712903871        747.75088747531117        309.58487472531738        56.109809089757817     
   5.0161122568172949E-004   1130.6787315979566        754.97738871284207        325.91776463126462        49.783578253843181     
   5.0559226715539396E-004   1149.5600651576588        758.40515201964581        345.75756125258783        45.397351885433821     
   5.0957330862905843E-004   1170.0543753162833        759.83719453708306        366.51597918886836        43.701201590328061     
   5.1355435010272290E-004   1191.8484664995046        761.98114919020531        385.10124664841652        44.766070660880608     
   5.1753539157638737E-004   1214.0918691431141        767.56460006623877        398.57921703644683        47.948052040437645     
   5.2151643305005184E-004   1235.4396391819930        778.37341717172819        405.02106861356634        52.045153396691497     
   5.2549747452371631E-004   1254.5434999850333        794.65858037703845        404.26516616513851        55.619753442844953     
   5.2947851599738078E-004   1270.7457583027028        815.15345255602483        398.18949241099472        57.402813335682268     
   5.3345955747104525E-004   1284.5161249435673        837.62233934046480        390.22838078238738        56.665404820713064     
   5.3744059894470972E-004   1297.3308693399217        859.63086818577574        384.25087492513154        53.449126229018461     
   5.4142164041837419E-004   1311.0813676821169        879.19692216138071        383.29980183938136        48.584643681359715     
   5.4540268189203866E-004   1327.3875312214011        895.12260705523681        388.77998427875991        43.484939887405261     
   5.4938372336570313E-004   1347.1794568965734        907.02150653798765        400.39454066526497        39.763409693329521     
   5.5336476483936760E-004   1370.6722122762949        915.21896553785189        416.67046483722646        38.782781901199819     
   5.5734580631303207E-004   1397.6213522191695        920.71367286150826        435.63402661221181        41.273652745445581     
   5.6132684778669654E-004   1427.6612669093909        925.22558870904527        455.28108189640363        47.154596303952914     
   5.6530788926036101E-004   1460.5689560089211        931.13622849775231        473.80616285263233        55.626564658524146     
   5.6928893073402548E-004   1496.3541140555249        941.06179783766527        489.78496822611044        65.507347991750606     
   5.7326997220768995E-004   1535.1083948484597        957.01148091566370        502.44145614477821        75.655457788015326     
   5.7725101368135442E-004   1576.6046611786198        979.45233221318210        511.87750649697784        85.274822468460698     
   5.8123205515501889E-004   1619.7720909823827        1006.8202578896232        519.00254406251474        93.949289030229878     
   5.8521309662868336E-004   1662.3354767131227        1035.8553186126871        525.06136444778804        101.41879365265953     
   5.8919413810234783E-004   1700.9612420153155        1062.6837714907758        530.99590042287036        107.28157010168599     
