# material: iron 
# electron heat capacity , sum of majority and minority contributions (DFT calculation spin resolved) 
# temperature [K], heat capacity [J/(m^3K)] 
0001.67 5.269673e+02
0005.01 2.381765e+03
0008.35 3.231662e+03
0011.69 4.195395e+03
0015.03 5.418146e+03
0018.36 6.627020e+03
0021.70 7.882252e+03
0025.04 9.001987e+03
0028.38 1.021604e+04
0031.72 1.140254e+04
0035.06 1.268305e+04
0038.40 1.375034e+04
0041.74 1.503951e+04
0045.08 1.620219e+04
0048.41 1.744558e+04
0051.75 1.857710e+04
0055.09 1.980498e+04
0058.43 2.101537e+04
0061.77 2.221180e+04
0065.11 2.338872e+04
0068.45 2.457335e+04
0071.79 2.577760e+04
0075.13 2.692965e+04
0078.46 2.813460e+04
0081.80 2.931850e+04
0085.14 3.051266e+04
0088.48 3.172845e+04
0091.82 3.285079e+04
0095.16 3.403317e+04
0098.50 3.522420e+04
0101.84 3.635360e+04
0105.18 3.753883e+04
0108.51 3.864091e+04
0111.85 3.983826e+04
0115.19 4.094710e+04
0118.53 4.210207e+04
0121.87 4.328178e+04
0125.21 4.438944e+04
0128.55 4.545972e+04
0131.89 4.666204e+04
0135.23 4.779837e+04
0138.56 4.885504e+04
0141.90 4.997700e+04
0145.24 5.104701e+04
0148.58 5.220984e+04
0151.92 5.334944e+04
0155.26 5.434937e+04
0158.60 5.551147e+04
0161.94 5.658885e+04
0165.28 5.770031e+04
0168.61 5.878175e+04
0171.95 5.984733e+04
0175.29 6.091086e+04
0178.63 6.203877e+04
0181.97 6.311423e+04
0185.31 6.422934e+04
0188.65 6.526755e+04
0191.99 6.632074e+04
0195.33 6.742840e+04
0198.66 6.855212e+04
0202.00 6.954978e+04
0205.34 7.069435e+04
0208.68 7.176611e+04
0212.02 7.280451e+04
0215.36 7.384924e+04
0218.70 7.504302e+04
0222.04 7.603747e+04
0225.38 7.710450e+04
0228.71 7.825838e+04
0232.05 7.927959e+04
0235.39 8.036281e+04
0238.73 8.144429e+04
0242.07 8.253771e+04
0245.41 8.357813e+04
0248.75 8.463298e+04
0252.09 8.581605e+04
0255.43 8.680792e+04
0258.76 8.795458e+04
0262.10 8.904023e+04
0265.44 9.005018e+04
0268.78 9.120359e+04
0272.12 9.225686e+04
0275.46 9.335000e+04
0278.80 9.436883e+04
0282.14 9.550288e+04
0285.48 9.658765e+04
0288.81 9.770914e+04
0292.15 9.877942e+04
0295.49 9.983395e+04
0298.83 1.009605e+05
0302.17 1.019419e+05
0305.51 1.030939e+05
0308.85 1.041727e+05
0312.19 1.052650e+05
0315.53 1.063813e+05
0318.86 1.074029e+05
0322.20 1.085446e+05
0325.54 1.095356e+05
0328.88 1.107148e+05
0332.22 1.117355e+05
0335.56 1.127847e+05
0338.90 1.138977e+05
0342.24 1.150243e+05
0345.58 1.160323e+05
0348.91 1.171451e+05
0352.25 1.181768e+05
0355.59 1.193065e+05
0358.93 1.203642e+05
0362.27 1.213839e+05
0365.61 1.224950e+05
0368.95 1.235540e+05
0372.29 1.245942e+05
0375.63 1.257169e+05
0378.96 1.267781e+05
0382.30 1.278104e+05
0385.64 1.288666e+05
0388.98 1.299513e+05
0392.32 1.309678e+05
0395.66 1.320220e+05
0399.00 1.331454e+05
0402.34 1.341589e+05
0405.68 1.352220e+05
0409.02 1.362647e+05
0412.35 1.372821e+05
0415.69 1.383871e+05
0419.03 1.393254e+05
0422.37 1.404499e+05
0425.71 1.414682e+05
0429.05 1.425765e+05
0432.39 1.434828e+05
0435.73 1.446580e+05
0439.07 1.456080e+05
0442.40 1.466106e+05
0445.74 1.476851e+05
0449.08 1.486967e+05
0452.42 1.497278e+05
0455.76 1.506990e+05
0459.10 1.518205e+05
0462.44 1.527563e+05
0465.78 1.538441e+05
0469.12 1.547484e+05
0472.45 1.558621e+05
0475.79 1.568554e+05
0479.13 1.578411e+05
0482.47 1.588642e+05
0485.81 1.598972e+05
0489.15 1.607953e+05
0492.49 1.618766e+05
0495.83 1.628517e+05
0499.17 1.638812e+05
0502.50 1.648331e+05
0505.84 1.658956e+05
0509.18 1.668396e+05
0512.52 1.678064e+05
0515.86 1.687980e+05
0519.20 1.698120e+05
0522.54 1.707631e+05
0525.88 1.717658e+05
0529.22 1.727616e+05
0532.55 1.736932e+05
0535.89 1.747317e+05
0539.23 1.756333e+05
0542.57 1.766404e+05
0545.91 1.775810e+05
0549.25 1.786541e+05
0552.59 1.795169e+05
0555.93 1.805246e+05
0559.27 1.814206e+05
0562.60 1.824460e+05
0565.94 1.834714e+05
0569.28 1.842833e+05
0572.62 1.853636e+05
0575.96 1.862579e+05
0579.30 1.872193e+05
0582.64 1.882049e+05
0585.98 1.890728e+05
0589.32 1.901333e+05
0592.65 1.909749e+05
0595.99 1.920068e+05
0599.33 1.928886e+05
0602.67 1.938883e+05
0606.01 1.948352e+05
0609.35 1.957287e+05
0612.69 1.967077e+05
0616.03 1.975904e+05
0619.37 1.985273e+05
0622.70 1.995351e+05
0626.04 2.004148e+05
0629.38 2.014148e+05
0632.72 2.022739e+05
0636.06 2.032109e+05
0639.40 2.041847e+05
0642.74 2.050656e+05
0646.08 2.060402e+05
0649.42 2.068905e+05
0652.75 2.079018e+05
0656.09 2.088163e+05
0659.43 2.097218e+05
0662.77 2.106274e+05
0666.11 2.115320e+05
0669.45 2.125235e+05
0672.79 2.134133e+05
0676.13 2.143584e+05
0679.47 2.152297e+05
0682.80 2.161546e+05
0686.14 2.170723e+05
0689.48 2.180416e+05
0692.82 2.188647e+05
0696.16 2.198745e+05
0699.50 2.207364e+05
0702.84 2.216762e+05
0706.18 2.225348e+05
0709.52 2.234777e+05
0712.85 2.244356e+05
0716.19 2.252636e+05
0719.53 2.262489e+05
0722.87 2.271330e+05
0726.21 2.280364e+05
0729.55 2.289804e+05
0732.89 2.298287e+05
0736.23 2.307538e+05
0739.57 2.317170e+05
0742.90 2.325521e+05
0746.24 2.334915e+05
0749.58 2.344362e+05
0752.92 2.352809e+05
0756.26 2.361969e+05
0759.60 2.371766e+05
0762.94 2.379933e+05
0766.28 2.390068e+05
0769.62 2.398192e+05
0772.95 2.407290e+05
0776.29 2.417047e+05
0779.63 2.425691e+05
0782.97 2.434369e+05
0786.31 2.443929e+05
0789.65 2.453141e+05
0792.99 2.461888e+05
0796.33 2.470939e+05
0799.67 2.479873e+05
0803.01 2.489709e+05
0806.34 2.498134e+05
0809.68 2.507090e+05
0813.02 2.516925e+05
0816.36 2.525331e+05
0819.70 2.534248e+05
0823.04 2.544022e+05
0826.38 2.552659e+05
0829.72 2.561479e+05
0833.06 2.571134e+05
0836.39 2.580296e+05
0839.73 2.588302e+05
0843.07 2.598402e+05
0846.41 2.607372e+05
0849.75 2.616795e+05
0853.09 2.625351e+05
0856.43 2.635042e+05
0859.77 2.643856e+05
0863.11 2.652789e+05
0866.44 2.661836e+05
0869.78 2.671302e+05
0873.12 2.680527e+05
0876.46 2.689225e+05
0879.80 2.698949e+05
0883.14 2.708133e+05
0886.48 2.717031e+05
0889.82 2.726679e+05
0893.16 2.734757e+05
0896.49 2.744826e+05
0899.83 2.754323e+05
0903.17 2.762554e+05
0906.51 2.772444e+05
0909.85 2.781413e+05
0913.19 2.791048e+05
0916.53 2.800399e+05
0919.87 2.808800e+05
0923.21 2.818830e+05
0926.54 2.827901e+05
0929.88 2.837313e+05
0933.22 2.846719e+05
0936.56 2.855486e+05
0939.90 2.864893e+05
0943.24 2.874925e+05
0946.58 2.883662e+05
0949.92 2.893024e+05
0953.26 2.902683e+05
0956.59 2.911992e+05
0959.93 2.921590e+05
0963.27 2.930197e+05
0966.61 2.940041e+05
0969.95 2.949521e+05
0973.29 2.959591e+05
0976.63 2.968018e+05
0979.97 2.978299e+05
0983.31 2.987249e+05
0986.64 2.996773e+05
0989.98 3.006229e+05
0993.32 3.016250e+05
0996.66 3.025882e+05
1000.00 3.034482e+05
1003.34 3.044904e+05
1006.68 3.054293e+05
1010.02 3.063592e+05
1013.36 3.073116e+05
1016.69 3.082863e+05
1020.03 3.092827e+05
1023.37 3.102056e+05
1026.71 3.111818e+05
1030.05 3.121467e+05
1033.39 3.131642e+05
1036.73 3.140747e+05
1040.07 3.151000e+05
1043.41 3.160498e+05
1046.74 3.169884e+05
1050.08 3.180388e+05
1053.42 3.190149e+05
1056.76 3.199770e+05
1060.10 3.209247e+05
1063.44 3.219547e+05
1066.78 3.228750e+05
1070.12 3.239069e+05
1073.46 3.249232e+05
1076.79 3.258638e+05
1080.13 3.269125e+05
1083.47 3.278853e+05
1086.81 3.288708e+05
1090.15 3.298745e+05
1093.49 3.308608e+05
1096.83 3.318618e+05
1100.17 3.329391e+05
1103.51 3.339069e+05
1106.84 3.348888e+05
1110.18 3.359460e+05
1113.52 3.368608e+05
1116.86 3.379772e+05
1120.20 3.389796e+05
1123.54 3.399332e+05
1126.88 3.410260e+05
1130.22 3.420655e+05
1133.56 3.429943e+05
1136.89 3.441228e+05
1140.23 3.450748e+05
1143.57 3.461605e+05
1146.91 3.471674e+05
1150.25 3.481853e+05
1153.59 3.492748e+05
1156.93 3.502807e+05
1160.27 3.513295e+05
1163.61 3.523554e+05
1166.94 3.534238e+05
1170.28 3.544408e+05
1173.62 3.555279e+05
1176.96 3.565911e+05
1180.30 3.576353e+05
1183.64 3.586882e+05
1186.98 3.597495e+05
1190.32 3.608191e+05
1193.66 3.618032e+05
1196.99 3.629822e+05
1200.33 3.640149e+05
1203.67 3.650551e+05
1207.01 3.661630e+05
1210.35 3.672177e+05
1213.69 3.682793e+05
1217.03 3.693808e+05
1220.37 3.704558e+05
1223.71 3.715703e+05
1227.05 3.726579e+05
1230.38 3.737248e+05
1233.72 3.748243e+05
1237.06 3.759029e+05
1240.40 3.770470e+05
1243.74 3.781366e+05
1247.08 3.791982e+05
1250.42 3.803315e+05
1253.76 3.814366e+05
1257.10 3.825464e+05
1260.43 3.836347e+05
1263.77 3.847537e+05
1267.11 3.858771e+05
1270.45 3.870381e+05
1273.79 3.881102e+05
1277.13 3.892533e+05
1280.47 3.903927e+05
1283.81 3.914506e+05
1287.15 3.926641e+05
1290.48 3.937548e+05
1293.82 3.949158e+05
1297.16 3.960465e+05
1300.50 3.972137e+05
1303.84 3.983503e+05
1307.18 3.994979e+05
1310.52 4.006400e+05
1313.86 4.017594e+05
1317.20 4.029401e+05
1320.53 4.041231e+05
1323.87 4.052832e+05
1327.21 4.064118e+05
1330.55 4.075424e+05
1333.89 4.088011e+05
1337.23 4.099354e+05
1340.57 4.110467e+05
1343.91 4.123104e+05
1347.25 4.134496e+05
1350.58 4.146577e+05
1353.92 4.158087e+05
1357.26 4.170440e+05
1360.60 4.181974e+05
1363.94 4.193520e+05
1367.28 4.205902e+05
1370.62 4.218144e+05
1373.96 4.229377e+05
1377.30 4.241877e+05
1380.63 4.254383e+05
1383.97 4.265973e+05
1387.31 4.277908e+05
1390.65 4.290187e+05
1393.99 4.302368e+05
1397.33 4.314993e+05
1400.67 4.326019e+05
1404.01 4.339803e+05
1407.35 4.351171e+05
1410.68 4.363456e+05
1414.02 4.376082e+05
1417.36 4.388023e+05
1420.70 4.400409e+05
1424.04 4.413261e+05
1427.38 4.425299e+05
1430.72 4.438483e+05
1434.06 4.449935e+05
1437.40 4.463107e+05
1440.73 4.475465e+05
1444.07 4.487817e+05
1447.41 4.500392e+05
1450.75 4.513644e+05
1454.09 4.525972e+05
1457.43 4.538290e+05
1460.77 4.551514e+05
1464.11 4.563812e+05
1467.45 4.576787e+05
1470.78 4.589634e+05
1474.12 4.602015e+05
1477.46 4.615525e+05
1480.80 4.628108e+05
1484.14 4.641022e+05
1487.48 4.653923e+05
1490.82 4.666809e+05
1494.16 4.680026e+05
1497.50 4.692315e+05
1500.83 4.706069e+05
1504.17 4.718672e+05
1507.51 4.732173e+05
1510.85 4.745311e+05
1514.19 4.757866e+05
1517.53 4.771316e+05
1520.87 4.784748e+05
1524.21 4.797943e+05
1527.55 4.810774e+05
1530.88 4.824151e+05
1534.22 4.837638e+05
1537.56 4.850976e+05
1540.90 4.864425e+05
1544.24 4.877507e+05
1547.58 4.891479e+05
1550.92 4.903958e+05
1554.26 4.918237e+05
1557.60 4.931023e+05
1560.93 4.945260e+05
1564.27 4.958565e+05
1567.61 4.971984e+05
1570.95 4.985806e+05
1574.29 4.999182e+05
1577.63 5.013096e+05
1580.97 5.026428e+05
1584.31 5.040506e+05
1587.65 5.053583e+05
1590.98 5.068313e+05
1594.32 5.081552e+05
1597.66 5.095469e+05
1601.00 5.109218e+05
1604.34 5.122530e+05
1607.68 5.137488e+05
1611.02 5.150751e+05
1614.36 5.164547e+05
1617.70 5.179225e+05
1621.04 5.192415e+05
1624.37 5.207042e+05
1627.71 5.220885e+05
1631.05 5.235461e+05
1634.39 5.248347e+05
1637.73 5.263222e+05
1641.07 5.277316e+05
1644.41 5.291585e+05
1647.75 5.305627e+05
1651.09 5.320196e+05
1654.42 5.334185e+05
1657.76 5.348700e+05
1661.10 5.362437e+05
1664.44 5.377251e+05
1667.78 5.391486e+05
1671.12 5.405498e+05
1674.46 5.420583e+05
1677.80 5.434540e+05
1681.14 5.449570e+05
1684.47 5.463472e+05
1687.81 5.478056e+05
1691.15 5.492453e+05
1694.49 5.507530e+05
1697.83 5.521483e+05
1701.17 5.537052e+05
1704.51 5.550949e+05
1707.85 5.565365e+05
1711.19 5.581011e+05
1714.52 5.594823e+05
1717.86 5.609866e+05
1721.20 5.624523e+05
1724.54 5.639864e+05
1727.88 5.654274e+05
1731.22 5.669200e+05
1734.56 5.683908e+05
1737.90 5.698587e+05
1741.24 5.714139e+05
1744.57 5.728215e+05
1747.91 5.744065e+05
1751.25 5.758439e+05
1754.59 5.773871e+05
1757.93 5.788902e+05
1761.27 5.803546e+05
1764.61 5.818703e+05
1767.95 5.834187e+05
1771.29 5.848915e+05
1774.62 5.864339e+05
1777.96 5.879189e+05
1781.30 5.894727e+05
1784.64 5.910235e+05
1787.98 5.924812e+05
1791.32 5.940258e+05
1794.66 5.955493e+05
1798.00 5.971237e+05
1801.34 5.986049e+05
1804.67 6.001912e+05
1808.01 6.017560e+05
1811.35 6.032460e+05
1814.69 6.047867e+05
1818.03 6.063065e+05
1821.37 6.079130e+05
1824.71 6.094440e+05
1828.05 6.109728e+05
1831.39 6.125697e+05
1834.72 6.141095e+05
1838.06 6.156287e+05
1841.40 6.172881e+05
1844.74 6.188007e+05
1848.08 6.203101e+05
1851.42 6.219422e+05
1854.76 6.235175e+05
1858.10 6.250894e+05
1861.44 6.266580e+05
1864.77 6.281697e+05
1868.11 6.298576e+05
1871.45 6.313456e+05
1874.79 6.330097e+05
1878.13 6.345975e+05
1881.47 6.361480e+05
1884.81 6.377119e+05
1888.15 6.393453e+05
1891.49 6.409219e+05
1894.82 6.425483e+05
1898.16 6.441179e+05
1901.50 6.457204e+05
1904.84 6.473194e+05
1908.18 6.489514e+05
1911.52 6.505797e+05
1914.86 6.521513e+05
1918.20 6.537559e+05
1921.54 6.554465e+05
1924.87 6.569907e+05
1928.21 6.585842e+05
1931.55 6.602840e+05
1934.89 6.618538e+05
1938.23 6.635093e+05
1941.57 6.651449e+05
1944.91 6.666870e+05
1948.25 6.684414e+05
1951.59 6.700126e+05
1954.92 6.716167e+05
1958.26 6.733065e+05
1961.60 6.749396e+05
1964.94 6.765529e+05
1968.28 6.782676e+05
1971.62 6.798203e+05
1974.96 6.815267e+05
1978.30 6.831452e+05
1981.64 6.848121e+05
1984.97 6.864750e+05
1988.31 6.880811e+05
1991.65 6.898096e+05
1994.99 6.914072e+05
1998.33 6.931118e+05
