# material: nickel 
# electron heat capacity (DFT calculation not spin resolved) 
# temperature [K], heat capacity [J/(m^3K)] 
0001.67 2.035921e+03
0005.01 9.083807e+03
0008.35 1.214164e+04
0011.69 1.603356e+04
0015.03 2.056161e+04
0018.36 2.507642e+04
0021.70 2.986058e+04
0025.04 3.450170e+04
0028.38 3.897011e+04
0031.72 4.387081e+04
0035.06 4.853032e+04
0038.40 5.328160e+04
0041.74 5.813636e+04
0045.08 6.300787e+04
0048.41 6.765604e+04
0051.75 7.249079e+04
0055.09 7.729062e+04
0058.43 8.192976e+04
0061.77 8.690752e+04
0065.11 9.145401e+04
0068.45 9.628094e+04
0071.79 1.007569e+05
0075.13 1.054807e+05
0078.46 1.102064e+05
0081.80 1.145630e+05
0085.14 1.191565e+05
0088.48 1.236883e+05
0091.82 1.282493e+05
0095.16 1.325632e+05
0098.50 1.369142e+05
0101.84 1.413938e+05
0105.18 1.457103e+05
0108.51 1.499335e+05
0111.85 1.541196e+05
0115.19 1.584972e+05
0118.53 1.625314e+05
0121.87 1.667946e+05
0125.21 1.709093e+05
0128.55 1.748579e+05
0131.89 1.789833e+05
0135.23 1.830547e+05
0138.56 1.870168e+05
0141.90 1.908036e+05
0145.24 1.948987e+05
0148.58 1.988435e+05
0151.92 2.025446e+05
0155.26 2.064604e+05
0158.60 2.101105e+05
0161.94 2.139399e+05
0165.28 2.176433e+05
0168.61 2.212831e+05
0171.95 2.251028e+05
0175.29 2.285990e+05
0178.63 2.321939e+05
0181.97 2.359348e+05
0185.31 2.393104e+05
0188.65 2.427344e+05
0191.99 2.462469e+05
0195.33 2.498864e+05
0198.66 2.531356e+05
0202.00 2.564004e+05
0205.34 2.598994e+05
0208.68 2.631129e+05
0212.02 2.664422e+05
0215.36 2.697348e+05
0218.70 2.730217e+05
0222.04 2.761497e+05
0225.38 2.793325e+05
0228.71 2.824159e+05
0232.05 2.854290e+05
0235.39 2.887660e+05
0238.73 2.915405e+05
0242.07 2.948768e+05
0245.41 2.977064e+05
0248.75 3.006044e+05
0252.09 3.035969e+05
0255.43 3.065282e+05
0258.76 3.094244e+05
0262.10 3.123112e+05
0265.44 3.150328e+05
0268.78 3.179765e+05
0272.12 3.206241e+05
0275.46 3.233619e+05
0278.80 3.262135e+05
0282.14 3.288419e+05
0285.48 3.314512e+05
0288.81 3.342439e+05
0292.15 3.367035e+05
0295.49 3.393913e+05
0298.83 3.419699e+05
0302.17 3.444613e+05
0305.51 3.468869e+05
0308.85 3.496244e+05
0312.19 3.518016e+05
0315.53 3.545088e+05
0318.86 3.566964e+05
0322.20 3.592736e+05
0325.54 3.615477e+05
0328.88 3.638927e+05
0332.22 3.661491e+05
0335.56 3.685113e+05
0338.90 3.708194e+05
0342.24 3.729138e+05
0345.58 3.753400e+05
0348.91 3.774086e+05
0352.25 3.794879e+05
0355.59 3.817682e+05
0358.93 3.839127e+05
0362.27 3.861111e+05
0365.61 3.880273e+05
0368.95 3.901996e+05
0372.29 3.921169e+05
0375.63 3.941409e+05
0378.96 3.962835e+05
0382.30 3.982084e+05
0385.64 4.001017e+05
0388.98 4.019745e+05
0392.32 4.040106e+05
0395.66 4.057014e+05
0399.00 4.077486e+05
0402.34 4.096432e+05
0405.68 4.113954e+05
0409.02 4.131866e+05
0412.35 4.148539e+05
0415.69 4.167489e+05
0419.03 4.185363e+05
0422.37 4.202243e+05
0425.71 4.218210e+05
0429.05 4.236751e+05
0432.39 4.251109e+05
0435.73 4.269875e+05
0439.07 4.284599e+05
0442.40 4.302148e+05
0445.74 4.317483e+05
0449.08 4.332364e+05
0452.42 4.348537e+05
0455.76 4.364358e+05
0459.10 4.379879e+05
0462.44 4.393465e+05
0465.78 4.408533e+05
0469.12 4.425116e+05
0472.45 4.438221e+05
0475.79 4.451251e+05
0479.13 4.467586e+05
0482.47 4.480568e+05
0485.81 4.495246e+05
0489.15 4.508316e+05
0492.49 4.521477e+05
0495.83 4.534756e+05
0499.17 4.548180e+05
0502.50 4.561773e+05
0505.84 4.573904e+05
0509.18 4.587906e+05
0512.52 4.600490e+05
0515.86 4.611684e+05
0519.20 4.624802e+05
0522.54 4.636566e+05
0525.88 4.648640e+05
0529.22 4.661035e+05
0532.55 4.672129e+05
0535.89 4.685206e+05
0539.23 4.695375e+05
0542.57 4.707547e+05
0545.91 4.718469e+05
0549.25 4.728155e+05
0552.59 4.741485e+05
0555.93 4.751967e+05
0559.27 4.761241e+05
0562.60 4.772548e+05
0565.94 4.784268e+05
0569.28 4.793182e+05
0572.62 4.804133e+05
0575.96 4.813899e+05
0579.30 4.824094e+05
0582.64 4.834715e+05
0585.98 4.844161e+05
0589.32 4.854036e+05
0592.65 4.864337e+05
0595.99 4.871874e+05
0599.33 4.883024e+05
0602.67 4.891412e+05
0606.01 4.901808e+05
0609.35 4.909447e+05
0612.69 4.920668e+05
0616.03 4.927548e+05
0619.37 4.937997e+05
0622.70 4.945688e+05
0626.04 4.953778e+05
0629.38 4.963832e+05
0632.72 4.971126e+05
0636.06 4.980371e+05
0639.40 4.988420e+05
0642.74 4.996838e+05
0646.08 5.005615e+05
0649.42 5.013186e+05
0652.75 5.021106e+05
0656.09 5.029367e+05
0659.43 5.036408e+05
0662.77 5.045329e+05
0666.11 5.053016e+05
0669.45 5.059470e+05
0672.79 5.067776e+05
0676.13 5.074834e+05
0679.47 5.083721e+05
0682.80 5.089810e+05
0686.14 5.097711e+05
0689.48 5.104342e+05
0692.82 5.112764e+05
0696.16 5.118372e+05
0699.50 5.127279e+05
0702.84 5.133364e+05
0706.18 5.139676e+05
0709.52 5.147727e+05
0712.85 5.154464e+05
0716.19 5.159885e+05
0719.53 5.168530e+05
0722.87 5.174328e+05
0726.21 5.180305e+05
0729.55 5.187959e+05
0732.89 5.194261e+05
0736.23 5.200716e+05
0739.57 5.207314e+05
0742.90 5.214045e+05
0746.24 5.219404e+05
0749.58 5.226381e+05
0752.92 5.233466e+05
0756.26 5.239160e+05
0759.60 5.244950e+05
0762.94 5.250830e+05
0766.28 5.258275e+05
0769.62 5.262820e+05
0772.95 5.270397e+05
0776.29 5.275068e+05
0779.63 5.281269e+05
0782.97 5.287512e+05
0786.31 5.293787e+05
0789.65 5.300089e+05
0792.99 5.304940e+05
0796.33 5.311274e+05
0799.67 5.316148e+05
0803.01 5.322487e+05
0806.34 5.328816e+05
0809.68 5.333669e+05
0813.02 5.339961e+05
0816.36 5.346222e+05
0819.70 5.350994e+05
0823.04 5.357179e+05
0826.38 5.361865e+05
0829.72 5.367949e+05
0833.06 5.372525e+05
0836.39 5.379926e+05
0839.73 5.384365e+05
0843.07 5.390170e+05
0846.41 5.394453e+05
0849.75 5.401521e+05
0853.09 5.405622e+05
0856.43 5.412490e+05
0859.77 5.416388e+05
0863.11 5.423034e+05
0866.44 5.426709e+05
0869.78 5.433115e+05
0873.12 5.439389e+05
0876.46 5.442689e+05
0879.80 5.450113e+05
0883.14 5.454555e+05
0886.48 5.458853e+05
0889.82 5.464417e+05
0893.16 5.469823e+05
0896.49 5.476476e+05
0899.83 5.480146e+05
0903.17 5.485058e+05
0906.51 5.491200e+05
0909.85 5.495760e+05
0913.19 5.501540e+05
0916.53 5.507131e+05
0919.87 5.511136e+05
0923.21 5.516345e+05
0926.54 5.522749e+05
0929.88 5.526167e+05
0933.22 5.533550e+05
0936.56 5.536559e+05
0939.90 5.542132e+05
0943.24 5.547489e+05
0946.58 5.552627e+05
0949.92 5.558921e+05
0953.26 5.562233e+05
0956.59 5.568073e+05
0959.93 5.573680e+05
0963.27 5.577680e+05
0966.61 5.584186e+05
0969.95 5.587711e+05
0973.29 5.593733e+05
0976.63 5.598141e+05
0979.97 5.603667e+05
0983.31 5.608941e+05
0986.64 5.613962e+05
0989.98 5.618728e+05
0993.32 5.624593e+05
0996.66 5.628842e+05
1000.00 5.634184e+05
1003.34 5.639261e+05
1006.68 5.644071e+05
1010.02 5.649961e+05
1013.36 5.654233e+05
1016.69 5.659578e+05
1020.03 5.664649e+05
1023.37 5.670784e+05
1026.71 5.673960e+05
1030.05 5.680874e+05
1033.39 5.684830e+05
1036.73 5.691174e+05
1040.07 5.694566e+05
1043.41 5.700338e+05
1046.74 5.705821e+05
1050.08 5.711013e+05
1053.42 5.715915e+05
1056.76 5.721849e+05
1060.10 5.726167e+05
1063.44 5.731513e+05
1066.78 5.736563e+05
1070.12 5.741318e+05
1073.46 5.747091e+05
1076.79 5.751251e+05
1080.13 5.757738e+05
1083.47 5.762610e+05
1086.81 5.767182e+05
1090.15 5.772760e+05
1093.49 5.778034e+05
1096.83 5.784307e+05
1100.17 5.787669e+05
1103.51 5.794631e+05
1106.84 5.798686e+05
1110.18 5.803734e+05
1113.52 5.809771e+05
1116.86 5.814203e+05
1120.20 5.820914e+05
1123.54 5.824731e+05
1126.88 5.830820e+05
1130.22 5.835310e+05
1133.56 5.842063e+05
1136.89 5.845933e+05
1140.23 5.852061e+05
1143.57 5.856595e+05
1146.91 5.863377e+05
1150.25 5.867288e+05
1153.59 5.873444e+05
1156.93 5.878010e+05
1160.27 5.884812e+05
1163.61 5.888754e+05
1166.94 5.894928e+05
1170.28 5.900785e+05
1173.62 5.905062e+05
1176.96 5.911560e+05
1180.30 5.916477e+05
1183.64 5.921083e+05
1186.98 5.927900e+05
1190.32 5.933139e+05
1193.66 5.938067e+05
1196.99 5.943940e+05
1200.33 5.949498e+05
1203.67 5.954744e+05
1207.01 5.959677e+05
1210.35 5.966800e+05
1213.69 5.971109e+05
1217.03 5.976357e+05
1220.37 5.983784e+05
1223.71 5.987162e+05
1227.05 5.993964e+05
1230.38 5.999209e+05
1233.72 6.005384e+05
1237.06 6.011246e+05
1240.40 6.015561e+05
1243.74 6.022041e+05
1247.08 6.028208e+05
1250.42 6.032832e+05
1253.76 6.038382e+05
1257.10 6.044853e+05
1260.43 6.051014e+05
1263.77 6.055639e+05
1267.11 6.061185e+05
1270.45 6.067649e+05
1273.79 6.073804e+05
1277.13 6.079652e+05
1280.47 6.083975e+05
1283.81 6.090434e+05
1287.15 6.096586e+05
1290.48 6.102433e+05
1293.82 6.107977e+05
1297.16 6.114431e+05
1300.50 6.119370e+05
1303.84 6.125220e+05
1307.18 6.131977e+05
1310.52 6.137223e+05
1313.86 6.143378e+05
1317.20 6.149231e+05
1320.53 6.154787e+05
1323.87 6.161246e+05
1327.21 6.167407e+05
1330.55 6.173269e+05
1333.89 6.178836e+05
1337.23 6.185304e+05
1340.57 6.190281e+05
1343.91 6.197353e+05
1347.25 6.202936e+05
1350.58 6.208228e+05
1353.92 6.215608e+05
1357.26 6.221504e+05
1360.60 6.227109e+05
1363.94 6.232425e+05
1367.28 6.239823e+05
1370.62 6.245744e+05
1373.96 6.251377e+05
1377.30 6.257905e+05
1380.63 6.262966e+05
1383.97 6.270098e+05
1387.31 6.276943e+05
1390.65 6.282325e+05
1393.99 6.288600e+05
1397.33 6.294591e+05
1400.67 6.300300e+05
1404.01 6.308068e+05
1407.35 6.313214e+05
1410.68 6.319250e+05
1414.02 6.326173e+05
1417.36 6.331650e+05
1420.70 6.339179e+05
1424.04 6.344102e+05
1427.38 6.351074e+05
1430.72 6.357769e+05
1434.06 6.364188e+05
1437.40 6.370332e+05
1440.73 6.376203e+05
1444.07 6.382958e+05
1447.41 6.388287e+05
1450.75 6.395652e+05
1454.09 6.402743e+05
1457.43 6.408413e+05
1460.77 6.414965e+05
1464.11 6.421248e+05
1467.45 6.427265e+05
1470.78 6.434162e+05
1474.12 6.440791e+05
1477.46 6.447156e+05
1480.80 6.453256e+05
1484.14 6.460234e+05
1487.48 6.466949e+05
1490.82 6.473401e+05
1494.16 6.479592e+05
1497.50 6.486660e+05
1500.83 6.492333e+05
1504.17 6.500015e+05
1507.51 6.505173e+05
1510.85 6.513470e+05
1514.19 6.519247e+05
1517.53 6.525899e+05
1520.87 6.532296e+05
1524.21 6.538441e+05
1527.55 6.546583e+05
1530.88 6.552221e+05
1534.22 6.558734e+05
1537.56 6.566117e+05
1540.90 6.572128e+05
1544.24 6.580131e+05
1547.58 6.585645e+05
1550.92 6.592032e+05
1554.26 6.600405e+05
1557.60 6.606298e+05
1560.93 6.611948e+05
1564.27 6.620694e+05
1567.61 6.625857e+05
1570.95 6.633002e+05
1574.29 6.641012e+05
1577.63 6.646563e+05
1580.97 6.654090e+05
1584.31 6.660269e+05
1587.65 6.667316e+05
1590.98 6.674124e+05
1594.32 6.681797e+05
1597.66 6.687029e+05
1601.00 6.695330e+05
1604.34 6.702293e+05
1607.68 6.707923e+05
1611.02 6.716614e+05
1614.36 6.721780e+05
1617.70 6.730003e+05
1621.04 6.735803e+05
1624.37 6.743562e+05
1627.71 6.751088e+05
1631.05 6.757293e+05
1634.39 6.764362e+05
1637.73 6.771203e+05
1641.07 6.777817e+05
1644.41 6.786379e+05
1647.75 6.791456e+05
1651.09 6.799566e+05
1654.42 6.806367e+05
1657.76 6.814026e+05
1661.10 6.820381e+05
1664.44 6.827597e+05
1667.78 6.835670e+05
1671.12 6.841364e+05
1674.46 6.848997e+05
1677.80 6.856409e+05
1681.14 6.862528e+05
1684.47 6.870580e+05
1687.81 6.877340e+05
1691.15 6.884958e+05
1694.49 6.891288e+05
1697.83 6.899546e+05
1701.17 6.906518e+05
1704.51 6.913278e+05
1707.85 6.919827e+05
1711.19 6.928298e+05
1714.52 6.934425e+05
1717.86 6.942473e+05
1721.20 6.949246e+05
1724.54 6.956873e+05
1727.88 6.964292e+05
1731.22 6.970443e+05
1734.56 6.978508e+05
1737.90 6.986365e+05
1741.24 6.992958e+05
1744.57 6.999349e+05
1747.91 7.007648e+05
1751.25 7.015741e+05
1754.59 7.021524e+05
1757.93 7.029214e+05
1761.27 7.037752e+05
1764.61 7.043986e+05
1767.95 7.051073e+05
1771.29 7.059010e+05
1774.62 7.066746e+05
1777.96 7.073238e+05
1781.30 7.081625e+05
1784.64 7.087725e+05
1787.98 7.095719e+05
1791.32 7.103517e+05
1794.66 7.111119e+05
1798.00 7.117486e+05
1801.34 7.125742e+05
1804.67 7.132765e+05
1808.01 7.140635e+05
1811.35 7.147275e+05
1814.69 7.155799e+05
1818.03 7.162061e+05
1821.37 7.170204e+05
1824.71 7.178157e+05
1828.05 7.184889e+05
1831.39 7.193497e+05
1834.72 7.199856e+05
1838.06 7.208090e+05
1841.40 7.215108e+05
1844.74 7.222970e+05
1848.08 7.229621e+05
1851.42 7.238142e+05
1854.76 7.245452e+05
1858.10 7.252580e+05
1861.44 7.260551e+05
1864.77 7.268340e+05
1868.11 7.275948e+05
1871.45 7.283375e+05
1874.79 7.290624e+05
1878.13 7.298713e+05
1881.47 7.305605e+05
1884.81 7.313338e+05
1888.15 7.321910e+05
1891.49 7.329288e+05
1894.82 7.336491e+05
1898.16 7.343519e+05
1901.50 7.352400e+05
1904.84 7.359080e+05
1908.18 7.367611e+05
1911.52 7.374956e+05
1914.86 7.382130e+05
1918.20 7.390142e+05
1921.54 7.397982e+05
1924.87 7.405651e+05
1928.21 7.413149e+05
1931.55 7.421484e+05
1934.89 7.428644e+05
1938.23 7.435637e+05
1941.57 7.444469e+05
1944.91 7.452129e+05
1948.25 7.459623e+05
1951.59 7.466951e+05
1954.92 7.475113e+05
1958.26 7.483110e+05
1961.60 7.490941e+05
1964.94 7.498608e+05
1968.28 7.506112e+05
1971.62 7.513454e+05
1974.96 7.521628e+05
1978.30 7.529640e+05
1981.64 7.537490e+05
1984.97 7.545179e+05
1988.31 7.552707e+05
1991.65 7.561067e+05
1994.99 7.568277e+05
1998.33 7.576319e+05
