# material: nickel 
# electron heat capacity , sum of majority and minority contributions (DFT calculation spin resolved) 
# temperature [K], heat capacity [J/(m^3K)] 
0001.67 7.043390e+02
0005.01 3.168319e+03
0008.35 4.213457e+03
0011.69 5.554410e+03
0015.03 7.179273e+03
0018.36 8.713714e+03
0021.70 1.036879e+04
0025.04 1.191845e+04
0028.38 1.356492e+04
0031.72 1.512151e+04
0035.06 1.678377e+04
0038.40 1.832746e+04
0041.74 1.995804e+04
0045.08 2.157139e+04
0048.41 2.320727e+04
0051.75 2.476361e+04
0055.09 2.640141e+04
0058.43 2.799100e+04
0061.77 2.967798e+04
0065.11 3.119099e+04
0068.45 3.284582e+04
0071.79 3.451243e+04
0075.13 3.606083e+04
0078.46 3.774392e+04
0081.80 3.931186e+04
0085.14 4.093406e+04
0088.48 4.257381e+04
0091.82 4.421033e+04
0095.16 4.584422e+04
0098.50 4.749045e+04
0101.84 4.907994e+04
0105.18 5.074262e+04
0108.51 5.234646e+04
0111.85 5.403610e+04
0115.19 5.562318e+04
0118.53 5.728918e+04
0121.87 5.892390e+04
0125.21 6.058134e+04
0128.55 6.221537e+04
0131.89 6.389393e+04
0135.23 6.549991e+04
0138.56 6.719457e+04
0141.90 6.883115e+04
0145.24 7.046337e+04
0148.58 7.215177e+04
0151.92 7.377835e+04
0155.26 7.547419e+04
0158.60 7.717107e+04
0161.94 7.876402e+04
0165.28 8.049092e+04
0168.61 8.216151e+04
0171.95 8.386242e+04
0175.29 8.551032e+04
0178.63 8.718453e+04
0181.97 8.887930e+04
0185.31 9.053834e+04
0188.65 9.226317e+04
0191.99 9.397451e+04
0195.33 9.568868e+04
0198.66 9.732606e+04
0202.00 9.910246e+04
0205.34 1.007750e+05
0208.68 1.025437e+05
0212.02 1.042089e+05
0215.36 1.059707e+05
0218.70 1.076363e+05
0222.04 1.094425e+05
0225.38 1.111599e+05
0228.71 1.128968e+05
0232.05 1.146169e+05
0235.39 1.164148e+05
0238.73 1.181186e+05
0242.07 1.199154e+05
0245.41 1.216909e+05
0248.75 1.234826e+05
0252.09 1.251974e+05
0255.43 1.270021e+05
0258.76 1.287827e+05
0262.10 1.305982e+05
0265.44 1.323927e+05
0268.78 1.341677e+05
0272.12 1.360333e+05
0275.46 1.377817e+05
0278.80 1.396247e+05
0282.14 1.413985e+05
0285.48 1.432784e+05
0288.81 1.450938e+05
0292.15 1.469118e+05
0295.49 1.487790e+05
0298.83 1.505896e+05
0302.17 1.524620e+05
0305.51 1.542905e+05
0308.85 1.561800e+05
0312.19 1.579671e+05
0315.53 1.598933e+05
0318.86 1.617814e+05
0322.20 1.635701e+05
0325.54 1.655082e+05
0328.88 1.673607e+05
0332.22 1.692400e+05
0335.56 1.711126e+05
0338.90 1.730704e+05
0342.24 1.748479e+05
0345.58 1.768479e+05
0348.91 1.786750e+05
0352.25 1.805442e+05
0355.59 1.824869e+05
0358.93 1.844282e+05
0362.27 1.862625e+05
0365.61 1.881748e+05
0368.95 1.901550e+05
0372.29 1.919881e+05
0375.63 1.939034e+05
0378.96 1.958396e+05
0382.30 1.977560e+05
0385.64 1.996423e+05
0388.98 2.015229e+05
0392.32 2.034970e+05
0395.66 2.053934e+05
0399.00 2.072944e+05
0402.34 2.091828e+05
0405.68 2.111270e+05
0409.02 2.130722e+05
0412.35 2.149701e+05
0415.69 2.168682e+05
0419.03 2.187837e+05
0422.37 2.206471e+05
0425.71 2.226509e+05
0429.05 2.244916e+05
0432.39 2.264199e+05
0435.73 2.283146e+05
0439.07 2.302369e+05
0442.40 2.321310e+05
0445.74 2.340580e+05
0449.08 2.359031e+05
0452.42 2.378515e+05
0455.76 2.397090e+05
0459.10 2.416815e+05
0462.44 2.435155e+05
0465.78 2.453964e+05
0469.12 2.472743e+05
0472.45 2.491962e+05
0475.79 2.510603e+05
0479.13 2.529132e+05
0482.47 2.548295e+05
0485.81 2.566863e+05
0489.15 2.585440e+05
0492.49 2.604631e+05
0495.83 2.622614e+05
0499.17 2.641898e+05
0502.50 2.660141e+05
0505.84 2.678324e+05
0509.18 2.697329e+05
0512.52 2.715188e+05
0515.86 2.734343e+05
0519.20 2.752442e+05
0522.54 2.770676e+05
0525.88 2.788531e+05
0529.22 2.807723e+05
0532.55 2.825161e+05
0535.89 2.844160e+05
0539.23 2.862010e+05
0542.57 2.879449e+05
0545.91 2.898329e+05
0549.25 2.916216e+05
0552.59 2.933638e+05
0555.93 2.951923e+05
0559.27 2.969819e+05
0562.60 2.987924e+05
0565.94 3.005646e+05
0569.28 3.022918e+05
0572.62 3.041138e+05
0575.96 3.058842e+05
0579.30 3.076308e+05
0582.64 3.093923e+05
0585.98 3.111092e+05
0589.32 3.128619e+05
0592.65 3.146295e+05
0595.99 3.163593e+05
0599.33 3.181177e+05
0602.67 3.198241e+05
0606.01 3.215656e+05
0609.35 3.232618e+05
0612.69 3.249857e+05
0616.03 3.266635e+05
0619.37 3.284214e+05
0622.70 3.300867e+05
0626.04 3.318244e+05
0629.38 3.334619e+05
0632.72 3.351849e+05
0636.06 3.368067e+05
0639.40 3.385590e+05
0642.74 3.401564e+05
0646.08 3.418834e+05
0649.42 3.435142e+05
0652.75 3.451539e+05
0656.09 3.468759e+05
0659.43 3.484329e+05
0662.77 3.501170e+05
0666.11 3.517618e+05
0669.45 3.533596e+05
0672.79 3.550227e+05
0676.13 3.566446e+05
0679.47 3.582175e+05
0682.80 3.599139e+05
0686.14 3.614538e+05
0689.48 3.630488e+05
0692.82 3.646521e+05
0696.16 3.662768e+05
0699.50 3.678344e+05
0702.84 3.694722e+05
0706.18 3.709811e+05
0709.52 3.726149e+05
0712.85 3.741461e+05
0716.19 3.757267e+05
0719.53 3.772633e+05
0722.87 3.788477e+05
0726.21 3.803795e+05
0729.55 3.819113e+05
0732.89 3.834955e+05
0736.23 3.849714e+05
0739.57 3.865515e+05
0742.90 3.880750e+05
0746.24 3.896013e+05
0749.58 3.911018e+05
0752.92 3.926175e+05
0756.26 3.941800e+05
0759.60 3.956074e+05
0762.94 3.971613e+05
0766.28 3.986319e+05
0769.62 4.000995e+05
0772.95 4.016169e+05
0776.29 4.031158e+05
0779.63 4.045559e+05
0782.97 4.060897e+05
0786.31 4.074956e+05
0789.65 4.090076e+05
0792.99 4.104435e+05
0796.33 4.119164e+05
0799.67 4.133790e+05
0803.01 4.147630e+05
0806.34 4.163095e+05
0809.68 4.176478e+05
0813.02 4.191609e+05
0816.36 4.205783e+05
0819.70 4.219734e+05
0823.04 4.234130e+05
0826.38 4.248288e+05
0829.72 4.262806e+05
0833.06 4.276999e+05
0836.39 4.290394e+05
0839.73 4.305267e+05
0843.07 4.318719e+05
0846.41 4.333097e+05
0849.75 4.346506e+05
0853.09 4.360825e+05
0856.43 4.374299e+05
0859.77 4.388667e+05
0863.11 4.402035e+05
0866.44 4.415677e+05
0869.78 4.429654e+05
0873.12 4.443821e+05
0876.46 4.456419e+05
0879.80 4.471150e+05
0883.14 4.483622e+05
0886.48 4.498143e+05
0889.82 4.511135e+05
0893.16 4.524202e+05
0896.49 4.538223e+05
0899.83 4.551161e+05
0903.17 4.564898e+05
0906.51 4.578214e+05
0909.85 4.591710e+05
0913.19 4.604770e+05
0916.53 4.617995e+05
0919.87 4.630770e+05
0923.21 4.644305e+05
0926.54 4.657306e+05
0929.88 4.670515e+05
0933.22 4.683855e+05
0936.56 4.696712e+05
0939.90 4.709617e+05
0943.24 4.722095e+05
0946.58 4.735823e+05
0949.92 4.748504e+05
0953.26 4.761276e+05
0956.59 4.773995e+05
0959.93 4.786931e+05
0963.27 4.799871e+05
0966.61 4.812339e+05
0969.95 4.825336e+05
0973.29 4.837919e+05
0976.63 4.851018e+05
0979.97 4.863082e+05
0983.31 4.875652e+05
0986.64 4.888929e+05
0989.98 4.901084e+05
0993.32 4.913656e+05
0996.66 4.925842e+05
1000.00 4.938434e+05
1003.34 4.951236e+05
1006.68 4.963216e+05
1010.02 4.975933e+05
1013.36 4.988027e+05
1016.69 5.000568e+05
1020.03 5.013222e+05
1023.37 5.025096e+05
1026.71 5.037002e+05
1030.05 5.050151e+05
1033.39 5.061219e+05
1036.73 5.074267e+05
1040.07 5.086508e+05
1043.41 5.098078e+05
1046.74 5.110865e+05
1050.08 5.122292e+05
1053.42 5.134925e+05
1056.76 5.146728e+05
1060.10 5.158511e+05
1063.44 5.170809e+05
1066.78 5.182400e+05
1070.12 5.195034e+05
1073.46 5.206413e+05
1076.79 5.218218e+05
1080.13 5.230583e+05
1083.47 5.242078e+05
1086.81 5.254194e+05
1090.15 5.266040e+05
1093.49 5.277211e+05
1096.83 5.289458e+05
1100.17 5.301560e+05
1103.51 5.312766e+05
1106.84 5.324566e+05
1110.18 5.336746e+05
1113.52 5.348156e+05
1116.86 5.359400e+05
1120.20 5.371619e+05
1123.54 5.382518e+05
1126.88 5.394993e+05
1130.22 5.406138e+05
1133.56 5.417565e+05
1136.89 5.428871e+05
1140.23 5.440590e+05
1143.57 5.452718e+05
1146.91 5.463358e+05
1150.25 5.475007e+05
1153.59 5.487054e+05
1156.93 5.497672e+05
1160.27 5.509217e+05
1163.61 5.521218e+05
1166.94 5.531779e+05
1170.28 5.543794e+05
1173.62 5.555109e+05
1176.96 5.566049e+05
1180.30 5.577426e+05
1183.64 5.588491e+05
1186.98 5.600524e+05
1190.32 5.611092e+05
1193.66 5.622553e+05
1196.99 5.633896e+05
1200.33 5.644770e+05
1203.67 5.656127e+05
1207.01 5.667079e+05
1210.35 5.679044e+05
1213.69 5.689453e+05
1217.03 5.700870e+05
1220.37 5.711868e+05
1223.71 5.722654e+05
1227.05 5.734367e+05
1230.38 5.745047e+05
1233.72 5.756180e+05
1237.06 5.766881e+05
1240.40 5.778566e+05
1243.74 5.788669e+05
1247.08 5.800287e+05
1250.42 5.811530e+05
1253.76 5.821928e+05
1257.10 5.833157e+05
1260.43 5.844071e+05
1263.77 5.855204e+05
1267.11 5.866088e+05
1270.45 5.876509e+05
1273.79 5.887956e+05
1277.13 5.898261e+05
1280.47 5.909586e+05
1283.81 5.920507e+05
1287.15 5.931024e+05
1290.48 5.942414e+05
1293.82 5.952857e+05
1297.16 5.963562e+05
1300.50 5.974458e+05
1303.84 5.985005e+05
1307.18 5.996343e+05
1310.52 6.006187e+05
1313.86 6.017957e+05
1317.20 6.028299e+05
1320.53 6.038676e+05
1323.87 6.049971e+05
1327.21 6.060297e+05
1330.55 6.070860e+05
1333.89 6.082125e+05
1337.23 6.092414e+05
1340.57 6.103003e+05
1343.91 6.113683e+05
1347.25 6.124659e+05
1350.58 6.135185e+05
1353.92 6.145864e+05
1357.26 6.156229e+05
1360.60 6.166742e+05
1363.94 6.178006e+05
1367.28 6.187672e+05
1370.62 6.198758e+05
1373.96 6.209450e+05
1377.30 6.220210e+05
1380.63 6.230572e+05
1383.97 6.240605e+05
1387.31 6.251907e+05
1390.65 6.261669e+05
1393.99 6.272765e+05
1397.33 6.283315e+05
1400.67 6.293596e+05
1404.01 6.304000e+05
1407.35 6.315057e+05
1410.68 6.325167e+05
1414.02 6.335465e+05
1417.36 6.346411e+05
1420.70 6.356334e+05
1424.04 6.367042e+05
1427.38 6.377328e+05
1430.72 6.388254e+05
1434.06 6.398222e+05
1437.40 6.408898e+05
1440.73 6.419144e+05
1444.07 6.430024e+05
1447.41 6.439940e+05
1450.75 6.450627e+05
1454.09 6.460668e+05
1457.43 6.471616e+05
1460.77 6.481384e+05
1464.11 6.492588e+05
1467.45 6.502007e+05
1470.78 6.513390e+05
1474.12 6.523125e+05
1477.46 6.533479e+05
1480.80 6.544056e+05
1484.14 6.554115e+05
1487.48 6.564927e+05
1490.82 6.575218e+05
1494.16 6.585587e+05
1497.50 6.595434e+05
1500.83 6.606166e+05
1504.17 6.616232e+05
1507.51 6.627042e+05
1510.85 6.636793e+05
1514.19 6.647744e+05
1517.53 6.657774e+05
1520.87 6.667802e+05
1524.21 6.678496e+05
1527.55 6.688655e+05
1530.88 6.699018e+05
1534.22 6.708844e+05
1537.56 6.719930e+05
1540.90 6.729948e+05
1544.24 6.740024e+05
1547.58 6.750087e+05
1550.92 6.761016e+05
1554.26 6.770732e+05
1557.60 6.781769e+05
1560.93 6.791592e+05
1564.27 6.801606e+05
1567.61 6.812270e+05
1570.95 6.822384e+05
1574.29 6.832546e+05
1577.63 6.842895e+05
1580.97 6.853220e+05
1584.31 6.863589e+05
1587.65 6.873545e+05
1590.98 6.884070e+05
1594.32 6.894040e+05
1597.66 6.904787e+05
1601.00 6.914379e+05
1604.34 6.925134e+05
1607.68 6.935469e+05
1611.02 6.945173e+05
1614.36 6.955580e+05
1617.70 6.966091e+05
1621.04 6.976564e+05
1624.37 6.986544e+05
1627.71 6.996624e+05
1631.05 7.006665e+05
1634.39 7.017402e+05
1637.73 7.027641e+05
1641.07 7.037837e+05
1644.41 7.048130e+05
1647.75 7.057852e+05
1651.09 7.068265e+05
1654.42 7.078702e+05
1657.76 7.089231e+05
1661.10 7.099117e+05
1664.44 7.109619e+05
1667.78 7.119686e+05
1671.12 7.129772e+05
1674.46 7.140402e+05
1677.80 7.150524e+05
1681.14 7.160733e+05
1684.47 7.170958e+05
1687.81 7.181128e+05
1691.15 7.191452e+05
1694.49 7.201720e+05
1697.83 7.211476e+05
1701.17 7.222502e+05
1704.51 7.232210e+05
1707.85 7.242733e+05
1711.19 7.253125e+05
1714.52 7.263072e+05
1717.86 7.273550e+05
1721.20 7.283582e+05
1724.54 7.294073e+05
1727.88 7.304047e+05
1731.22 7.314759e+05
1734.56 7.324741e+05
1737.90 7.334796e+05
1741.24 7.345517e+05
1744.57 7.355647e+05
1747.91 7.365708e+05
1751.25 7.375910e+05
1754.59 7.386633e+05
1757.93 7.396833e+05
1761.27 7.407031e+05
1764.61 7.417226e+05
1767.95 7.427418e+05
1771.29 7.437747e+05
1774.62 7.447931e+05
1777.96 7.458841e+05
1781.30 7.468492e+05
1784.64 7.478798e+05
1787.98 7.489688e+05
1791.32 7.499388e+05
1794.66 7.510261e+05
1798.00 7.520013e+05
1801.34 7.530417e+05
1804.67 7.540669e+05
1808.01 7.551640e+05
1811.35 7.561349e+05
1814.69 7.571777e+05
1818.03 7.582050e+05
1821.37 7.592451e+05
1824.71 7.602766e+05
1828.05 7.613208e+05
1831.39 7.623492e+05
1834.72 7.633902e+05
1838.06 7.644224e+05
1841.40 7.654599e+05
1844.74 7.664956e+05
1848.08 7.675295e+05
1851.42 7.685684e+05
1854.76 7.695984e+05
1858.10 7.705745e+05
1861.44 7.717321e+05
1864.77 7.726968e+05
1868.11 7.737394e+05
1871.45 7.747656e+05
1874.79 7.758553e+05
1878.13 7.768251e+05
1881.47 7.779170e+05
1884.81 7.789477e+05
1888.15 7.799758e+05
1891.49 7.810013e+05
1894.82 7.820828e+05
1898.16 7.831100e+05
1901.50 7.841344e+05
1904.84 7.852076e+05
1908.18 7.862404e+05
1911.52 7.872491e+05
1914.86 7.883347e+05
1918.20 7.893444e+05
1921.54 7.904238e+05
1924.87 7.914344e+05
1928.21 7.925074e+05
1931.55 7.935772e+05
1934.89 7.945851e+05
1938.23 7.956482e+05
1941.57 7.966564e+05
1944.91 7.977711e+05
1948.25 7.987795e+05
1951.59 7.997772e+05
1954.92 8.008953e+05
1958.26 8.019442e+05
1961.60 8.030036e+05
1964.94 8.039866e+05
1968.28 8.051039e+05
1971.62 8.061376e+05
1974.96 8.071887e+05
1978.30 8.082287e+05
1981.64 8.092718e+05
1984.97 8.103621e+05
1988.31 8.113971e+05
1991.65 8.124278e+05
1994.99 8.135198e+05
1998.33 8.145421e+05
